# E_gamma(MeV)   IFA_primary_masked(MeV^-1 s^-1)
5.145440e-01 3.529899e+18
5.413360e-01 5.959808e+18
5.695230e-01 8.713630e+18
5.991770e-01 1.130519e+19
6.303750e-01 1.314058e+19
6.631980e-01 1.431178e+19
6.977300e-01 1.498723e+19
7.340600e-01 1.529988e+19
7.722810e-01 1.534784e+19
8.124930e-01 1.520303e+19
8.547980e-01 1.491898e+19
8.993070e-01 1.453557e+19
9.461320e-01 1.408286e+19
9.953960e-01 1.358360e+19
1.047230e+00 1.305504e+19
1.101750e+00 1.251027e+19
1.159120e+00 1.195921e+19
1.219470e+00 1.140938e+19
1.282970e+00 1.086634e+19
1.349770e+00 1.033454e+19
1.420050e+00 9.816498e+18
1.493990e+00 9.314652e+18
1.571780e+00 8.830394e+18
1.653620e+00 8.364674e+18
1.739730e+00 7.917734e+18
1.830310e+00 7.490264e+18
1.925610e+00 7.081910e+18
2.025880e+00 6.692460e+18
2.131360e+00 6.321494e+18
2.242340e+00 5.968508e+18
2.359100e+00 5.632919e+18
2.481930e+00 5.314113e+18
2.611160e+00 5.011411e+18
2.747120e+00 4.724178e+18
2.890160e+00 4.451617e+18
3.040650e+00 4.193054e+18
3.198970e+00 3.947801e+18
3.365530e+00 3.715195e+18
3.540770e+00 3.494521e+18
3.725140e+00 3.285246e+18
3.919100e+00 3.086714e+18
4.123160e+00 2.898309e+18
4.337850e+00 2.719463e+18
4.563720e+00 2.549627e+18
4.801340e+00 2.388276e+18
5.051340e+00 2.234999e+18
5.314360e+00 2.089149e+18
5.591070e+00 1.950362e+18
5.882190e+00 1.818221e+18
6.188470e+00 1.692430e+18
6.510690e+00 1.572418e+18
6.849700e+00 1.457911e+18
7.206350e+00 1.348579e+18
7.581580e+00 1.244165e+18
7.976340e+00 1.144282e+18
8.391660e+00 1.048809e+18
8.828600e+00 9.576347e+17
9.288290e+00 8.705177e+17
9.771920e+00 7.872964e+17
1.028070e+01 7.079035e+17
1.081600e+01 6.323239e+17
1.137920e+01 5.605810e+17
1.197170e+01 4.927668e+17
1.259510e+01 4.290297e+17
1.325090e+01 3.695747e+17
1.394080e+01 3.146147e+17
1.466670e+01 2.644163e+17
1.543040e+01 2.191849e+17
1.623380e+01 1.790700e+17
1.707910e+01 1.441197e+17
1.796840e+01 1.142560e+17
1.890400e+01 8.925105e+16
1.988830e+01 6.874362e+16
2.092380e+01 5.226278e+16
2.201330e+01 3.927087e+16
2.315950e+01 2.920851e+16
2.436540e+01 2.152155e+16
2.563410e+01 1.571838e+16
2.696880e+01 1.136888e+16
2.837300e+01 8.127412e+15
2.985040e+01 5.719286e+15
3.140470e+01 3.946844e+15
3.303990e+01 2.655249e+15
3.476020e+01 1.735992e+15
3.657010e+01 1.107651e+15
3.847430e+01 6.772288e+14
4.047760e+01 4.078103e+14
4.258520e+01 2.384382e+14
4.480250e+01 1.388647e+14
4.713530e+01 7.191772e+13
4.958960e+01 4.231077e+13
5.217170e+01 1.992875e+13
5.488820e+01 1.128522e+13
5.774620e+01 4.879076e+12
6.075290e+01 2.575840e+12
6.391620e+01 1.062364e+12
6.724430e+01 4.427322e+11
7.074560e+01 2.041050e+11
7.442920e+01 7.890813e+10
7.830470e+01 3.067449e+10
8.238190e+01 1.089266e+10
8.667140e+01 3.864725e+09
9.118430e+01 1.313019e+09
9.593210e+01 4.123840e+08
1.009270e+02 1.182845e+08
1.061820e+02 3.153951e+07
1.117110e+02 8.125237e+06
1.175280e+02 1.846455e+06
1.236470e+02 4.015499e+05
1.300850e+02 8.044301e+04
1.368590e+02 1.067995e+04
1.439850e+02 2.164319e+03
1.514820e+02 3.067385e+02
1.593690e+02 4.565540e+01
1.676680e+02 6.032502e+00
1.763980e+02 7.022991e-01
1.855830e+02 7.112371e-02
1.952460e+02 1.762695e-02
2.054120e+02 2.749605e-03
2.161070e+02 0.000000e+00
2.273600e+02 0.000000e+00
2.391980e+02 0.000000e+00
2.516530e+02 0.000000e+00
2.647560e+02 0.000000e+00
2.785410e+02 0.000000e+00
2.930450e+02 0.000000e+00
3.083030e+02 0.000000e+00
3.243560e+02 0.000000e+00
3.412450e+02 0.000000e+00
3.590130e+02 0.000000e+00
3.777060e+02 0.000000e+00
3.973730e+02 0.000000e+00
4.180640e+02 0.000000e+00
4.398320e+02 0.000000e+00
4.627330e+02 0.000000e+00
4.868270e+02 0.000000e+00
5.121760e+02 0.000000e+00
5.388440e+02 0.000000e+00
5.669010e+02 0.000000e+00
5.964180e+02 0.000000e+00
6.274730e+02 0.000000e+00
6.601450e+02 0.000000e+00
6.945180e+02 0.000000e+00
7.306800e+02 0.000000e+00
7.687260e+02 0.000000e+00
8.087520e+02 0.000000e+00
8.508630e+02 0.000000e+00
8.951660e+02 0.000000e+00
9.417770e+02 0.000000e+00
9.908140e+02 0.000000e+00
1.042400e+03 0.000000e+00
1.096680e+03 0.000000e+00
1.153780e+03 0.000000e+00
1.213860e+03 0.000000e+00
1.277060e+03 0.000000e+00
1.343560e+03 0.000000e+00
1.413520e+03 0.000000e+00
1.487120e+03 0.000000e+00
1.564550e+03 0.000000e+00
1.646010e+03 0.000000e+00
1.731720e+03 0.000000e+00
1.821890e+03 0.000000e+00
1.916750e+03 0.000000e+00
2.016550e+03 0.000000e+00
2.121550e+03 0.000000e+00
2.232020e+03 0.000000e+00
2.348230e+03 0.000000e+00
2.470500e+03 0.000000e+00
2.599140e+03 0.000000e+00
2.734470e+03 0.000000e+00
