      E_gamma(MeV)          Gamma Rays            Positrons
    5.1454400000e-01     5.1985897615e+18     4.8872937000e+18
    5.4133600000e-01     5.0194454827e+18     4.6246245000e+18
    5.6952300000e-01     4.8445098030e+18     4.3784702000e+18
    5.9917700000e-01     4.6741527770e+18     4.1307003000e+18
    6.3037500000e-01     4.4911843160e+18     3.9003731000e+18
    6.6319800000e-01     4.3033539270e+18     3.6666346000e+18
    6.9773000000e-01     4.1316004020e+18     3.4355720000e+18
    7.3406000000e-01     3.9515625300e+18     3.2191419000e+18
    7.7228100000e-01     3.7771083230e+18     3.0021262000e+18
    8.1249300000e-01     3.5948058800e+18     2.8056984000e+18
    8.5479800000e-01     3.4211743820e+18     2.6086551000e+18
    8.9930700000e-01     3.2539927720e+18     2.4220981000e+18
    9.4613200000e-01     3.0869129940e+18     2.2505330000e+18
    9.9539600000e-01     2.9166265690e+18     2.0758360000e+18
    1.0472300000e+00     2.7546232410e+18     1.9201220000e+18
    1.1017500000e+00     2.5994495140e+18     1.7646670000e+18
    1.1591200000e+00     2.4447275800e+18     1.6196360000e+18
    1.2194700000e+00     2.2955891340e+18     1.4880740000e+18
    1.2829700000e+00     2.1459825900e+18     1.3598840000e+18
    1.3497700000e+00     2.0094303700e+18     1.2428320000e+18
    1.4200500000e+00     1.8747207100e+18     1.1297160000e+18
    1.4939900000e+00     1.7447992100e+18     1.0270110000e+18
    1.5717800000e+00     1.6221921900e+18     9.3229300000e+17
    1.6536200000e+00     1.5025252000e+18     8.3996400000e+17
    1.7397300000e+00     1.3915299800e+18     7.5925700000e+17
    1.8303100000e+00     1.2826160300e+18     6.8283900000e+17
    1.9256100000e+00     1.1816702900e+18     6.1281900000e+17
    2.0258800000e+00     1.0853772600e+18     5.4832600000e+17
    2.1313600000e+00     9.9421969000e+17     4.9005300000e+17
    2.2423400000e+00     9.1025233000e+17     4.3659200000e+17
    2.3591000000e+00     8.2721569000e+17     3.8667100000e+17
    2.4819300000e+00     7.5363800000e+17     3.4188800000e+17
    2.6111600000e+00     6.8300630000e+17     3.0257300000e+17
    2.7471200000e+00     6.1808750000e+17     2.6578800000e+17
    2.8901600000e+00     5.5834640000e+17     2.3324700000e+17
    3.0406500000e+00     5.0210600000e+17     2.0367300000e+17
    3.1989700000e+00     4.5088840000e+17     1.7790000000e+17
    3.3655300000e+00     4.0325440000e+17     1.5417000000e+17
    3.5407700000e+00     3.6029010000e+17     1.3333000000e+17
    3.7251400000e+00     3.2041560000e+17     1.1501000000e+17
    3.9191000000e+00     2.8481080000e+17     9.8170000000e+16
    4.1231600000e+00     2.5172850000e+17     8.4640000000e+16
    4.3378500000e+00     2.2210030000e+17     7.2060000000e+16
    4.5637200000e+00     1.9500060000e+17     6.0740000000e+16
    4.8013400000e+00     1.7100960000e+17     5.1470000000e+16
    5.0513400000e+00     1.4962290000e+17     4.3270000000e+16
    5.3143600000e+00     1.3020760000e+17     3.6200000000e+16
    5.5910700000e+00     1.1300760000e+17     3.0140000000e+16
    5.8821900000e+00     9.7452600000e+16     2.4780000000e+16
    6.1884700000e+00     8.3701700000e+16     2.0530000000e+16
    6.5106900000e+00     7.1928000000e+16     1.6690000000e+16
    6.8497000000e+00     6.1149000000e+16     1.3650000000e+16
    7.2063500000e+00     5.2281000000e+16     1.1080000000e+16
    7.5815800000e+00     4.4004000000e+16     8.8300000000e+15
    7.9763400000e+00     3.7126000000e+16     7.0900000000e+15
    8.3916600000e+00     3.0893000000e+16     5.6200000000e+15
    8.8286000000e+00     2.5584000000e+16     4.3800000000e+15
    9.2882900000e+00     2.1119000000e+16     3.3900000000e+15
    9.7719200000e+00     1.7287000000e+16     2.6200000000e+15
    1.0280700000e+01     1.4054000000e+16     2.0200000000e+15
    1.0816000000e+01     1.1357000000e+16     1.5200000000e+15
    1.1379200000e+01     9.1060000000e+15     1.1700000000e+15
    1.1971700000e+01     7.2660000000e+15     8.6000000000e+14
    1.2595100000e+01     5.6940000000e+15     6.6000000000e+14
    1.3250900000e+01     4.4180000000e+15     4.8000000000e+14
    1.3940800000e+01     3.3900000000e+15     3.3000000000e+14
    1.4666700000e+01     2.6080000000e+15     2.4000000000e+14
    1.5430400000e+01     1.9890000000e+15     1.6000000000e+14
    1.6233800000e+01     1.4900000000e+15     1.3000000000e+14
    1.7079100000e+01     1.0900000000e+15     8.0000000001e+13
    1.7968400000e+01     8.0000000000e+14     4.0000000000e+13
    1.8904000000e+01     5.7000000000e+14     9.9999999999e+12
    1.9888300000e+01     4.2000000000e+14     2.1909168290e+13
    2.0923800000e+01     2.9000000000e+14     5.0000000000e+13
    2.2013300000e+01     2.0000000000e+14     2.0000000000e+13
    2.3159500000e+01     1.4000000000e+14     9.9999999999e+12
    2.4365400000e+01     9.0000000000e+13     9.9999999999e+12
    2.5634100000e+01     5.7000000000e+13     1.0000000000e+13
    2.6968800000e+01     4.0000000000e+13     8.9696303708e+12
    2.8373000000e+01     2.8000000000e+13     8.0000000000e+12
    2.9850400000e+01     1.4000000000e+13     9.9999999997e+11
    3.1404700000e+01     8.0000000000e+12     3.0000000000e+12
    3.3039900000e+01     4.0000000000e+12     3.0000000000e+12
    3.4760200000e+01     3.4000000000e+12     1.0000000000e+12
    3.6570100000e+01     2.1000000000e+12     1.0000000000e+12
    3.8474300000e+01     9.0000000000e+11     7.0000000000e+11
    4.0477600000e+01     5.0000000000e+11     4.0000000000e+11
    4.2585200000e+01     3.0000000000e+11     1.0000000000e+11
    4.4802500000e+01     3.0000000000e+11     2.0000000000e+11
    4.7135300000e+01     1.6000000000e+11     1.0000000000e+11
    4.9589600000e+01     6.0000000000e+10     3.0000000000e+10
    5.2171700000e+01     1.0000000000e+10     1.0000000000e+10
    5.4888200000e+01     8.0000000000e+09     8.9696386689e+09
    5.7746200000e+01     1.0000000000e+09     8.0000000000e+09
    6.0752900000e+01     3.0000000000e+09     3.0000000000e+09
    6.3916200000e+01     1.9000000000e+09     3.0000000000e+09
    6.7244300000e+01     6.9704340790e+08     3.0000000000e+08
    7.0745600000e+01     2.4271812518e+08     1.0000000000e+08
    7.4429200000e+01     8.0000000000e+07     1.0000000000e+08
    7.8304700000e+01     2.0000000000e+07     3.0000000000e+07
    8.2381900000e+01     2.0000000000e+06     5.7187506504e+06
    8.6671400000e+01     7.9347052235e+05     1.0000000000e+06
    9.1184300000e+01     3.0000000000e+05     1.0000000000e+06
    9.5932100000e+01     4.1016925137e+05     1.0475419648e+06
    1.0092700000e+02     5.7000000000e+05     1.1000000000e+06
    1.0618200000e+02     2.8000000000e+05     5.2000000000e+05
    1.1171100000e+02     1.5000000000e+04     3.2000000000e+04
    1.1752800000e+02     3.0000000000e+03     6.0000000000e+03
    1.2364700000e+02     2.6000000000e+03     4.9000000000e+03
    1.3008500000e+02     7.6000000000e+02     1.6200000000e+03
    1.3685900000e+02     1.5000000000e+01     3.0000000000e+01
    1.4398500000e+02     1.6000000000e+00     4.0000000000e+00
    1.5148200000e+02     1.0000000000e-01     2.0000000000e-01
    1.5936900000e+02     3.7000000000e-01     7.3000000000e-01
    1.6766800000e+02     5.0000000000e-03     1.0000000000e-02
    1.7639800000e+02     3.0000000000e-04     7.0000000000e-04
    1.8558300000e+02     4.5000000000e-05     8.0000000000e-05
    1.9524600000e+02     2.4000000000e-06     4.0000000000e-06
    2.0541200000e+02     1.2000000000e-07     2.3000000000e-07
    2.1610700000e+02     1.1000000000e-07     2.1900000000e-07
    2.2736000000e+02     3.0000000000e-10     6.0000000000e-10
    2.3919800000e+02     1.0000000000e-12     2.3830403698e-11
    2.5165300000e+02     4.0000000000e-13     8.0000000000e-13
    2.6475600000e+02     3.0000000000e-15     1.5992428058e-13
    2.7854100000e+02     1.5000000000e-14     2.9400000000e-14
    2.9304500000e+02     6.0000000000e-18     1.2000000000e-17
    3.0830300000e+02     2.9400000000e-18     5.7700000000e-18
    3.2435600000e+02     2.3600000000e-20     4.6000000000e-20
    3.4124500000e+02     5.0000000000e-24     1.0000000000e-23
    3.5901300000e+02     1.7100000000e-24     3.3000000000e-24
    3.7770600000e+02     1.2480000000e-25     2.4090000000e-25
    3.9737300000e+02     8.4000000000e-29     1.6400000000e-28
    4.1806400000e+02     1.1000000000e-32     2.0000000000e-32
    4.3983200000e+02     3.0000000000e-35     6.0000000000e-35
    4.6273300000e+02     2.6540000000e-35     5.1000000000e-35
    4.8682700000e+02     2.6000000000e-38     4.9100000000e-38
    5.1217600000e+02     2.0000000000e-43     4.0000000000e-43
    5.3884400000e+02     6.0000000000e-47     1.0000000000e-46
    5.6690100000e+02     5.0000000000e-50     9.0000000001e-50
    5.9641800000e+02     8.4850000000e-50     1.5753000000e-49
    6.2747300000e+02     1.5067000000e-53     2.8144000000e-53
    6.6014500000e+02     2.0000000000e-61     7.4119794462e-59
    6.9451800000e+02     4.9999999999e-65     9.9999999999e-65
    7.3068000000e+02     1.0082700000e-64     1.8729100000e-64
    7.6872600000e+02     6.5985082570e-69     1.0000000000e-73
    8.0875200000e+02     2.6155500000e-73     4.6400300000e-73
    8.5086300000e+02     2.0313500000e-78     3.5815000000e-78
    8.9516600000e+02     7.6404400000e-83     1.3754620000e-82
    9.4177700000e+02     1.0000000000e-93     3.0000000000e-93
    9.9081400000e+02     2.0000000000e-99     4.0000000000e-99
    1.0424000000e+03     3.0149411000e-98     5.4349617000e-98
    1.0966800000e+03    4.5141470000e-105    8.0902170000e-105
    1.1537800000e+03    1.2488429900e-110    2.2267805900e-110
    1.2138600000e+03    7.0000000000e-125    2.0000000000e-124
    1.2770600000e+03    3.2777020900e-124    5.4229178300e-124
    1.3435600000e+03    1.3000000000e-139    2.1000000000e-139
    1.4135200000e+03    2.7000000000e-147    4.5000000000e-147
    1.4871200000e+03    7.0000000000e-156    1.0000000000e-155
    1.5645500000e+03    4.0000000000e-165    7.0000000000e-165
    1.6460100000e+03    2.5906046783e-165    4.2309689771e-165
    1.7317200000e+03    2.0000000000e-184    2.8000000000e-184
    1.8218900000e+03    1.0000000000e-194    1.7000000000e-194
    1.9167500000e+03    3.0000000000e-206    5.0000000000e-206
    2.0165500000e+03    2.1287594559e-206    3.4094591360e-206
    2.1215500000e+03    8.8792662082e-219    1.4099994095e-218
    2.2320200000e+03    2.0000000000e-242    2.8000000000e-242
    2.3482300000e+03    2.5519099978e-242    3.6676399972e-242
    2.4705000000e+03    7.2459299987e-256    9.1737599981e-256
    2.5991400000e+03    4.5239481165e-270    5.6349761021e-270
    2.7344700000e+03    5.1549400000e-285    6.3117699999e-285
    2.8768500000e+03    1.0167000000e-300    1.4613400000e-300
    3.0266500000e+03     0.0000000000e+00     0.0000000000e+00
    3.1842400000e+03     0.0000000000e+00     0.0000000000e+00
    3.3500400000e+03     0.0000000000e+00     0.0000000000e+00
    3.5244700000e+03     0.0000000000e+00     0.0000000000e+00
    3.7079900000e+03     0.0000000000e+00     0.0000000000e+00
    3.9010600000e+03     0.0000000000e+00     0.0000000000e+00
    4.1041800000e+03     0.0000000000e+00     0.0000000000e+00
    4.3178800000e+03     0.0000000000e+00     0.0000000000e+00
    4.5427100000e+03     0.0000000000e+00     0.0000000000e+00
    4.7792400000e+03     0.0000000000e+00     0.0000000000e+00
    5.0280900000e+03     0.0000000000e+00     0.0000000000e+00
    5.2898900000e+03     0.0000000000e+00     0.0000000000e+00
    5.5653300000e+03     0.0000000000e+00     0.0000000000e+00
    5.8551100000e+03     0.0000000000e+00     0.0000000000e+00
    6.1599800000e+03     0.0000000000e+00     0.0000000000e+00
    6.4807200000e+03     0.0000000000e+00     0.0000000000e+00
    6.8181600000e+03     0.0000000000e+00     0.0000000000e+00
    7.1731700000e+03     0.0000000000e+00     0.0000000000e+00
    7.5466700000e+03     0.0000000000e+00     0.0000000000e+00
    7.9396200000e+03     0.0000000000e+00     0.0000000000e+00
    8.3530200000e+03     0.0000000000e+00     0.0000000000e+00
    8.7879500000e+03     0.0000000000e+00     0.0000000000e+00
    9.2455300000e+03     0.0000000000e+00     0.0000000000e+00
    9.7269300000e+03     0.0000000000e+00     0.0000000000e+00
    1.0233400000e+04     0.0000000000e+00     0.0000000000e+00
    1.0766200000e+04     0.0000000000e+00     0.0000000000e+00
    1.1326800000e+04     0.0000000000e+00     0.0000000000e+00
    1.1916600000e+04     0.0000000000e+00     0.0000000000e+00
    1.2537100000e+04     0.0000000000e+00     0.0000000000e+00
    1.3189900000e+04     0.0000000000e+00     0.0000000000e+00
    1.3876600000e+04     0.0000000000e+00     0.0000000000e+00
    1.4599200000e+04     0.0000000000e+00     0.0000000000e+00
    1.5359300000e+04     0.0000000000e+00     0.0000000000e+00
    1.6159100000e+04     0.0000000000e+00     0.0000000000e+00
    1.7000500000e+04     0.0000000000e+00     0.0000000000e+00
    1.7885700000e+04     0.0000000000e+00     0.0000000000e+00
    1.8816900000e+04     0.0000000000e+00     0.0000000000e+00
    1.9796700000e+04     0.0000000000e+00     0.0000000000e+00
    2.0827500000e+04     0.0000000000e+00     0.0000000000e+00
    2.1912000000e+04     0.0000000000e+00     0.0000000000e+00
    2.3052900000e+04     0.0000000000e+00     0.0000000000e+00
    2.4253200000e+04     0.0000000000e+00     0.0000000000e+00
    2.5516100000e+04     0.0000000000e+00     0.0000000000e+00
    2.6844600000e+04     0.0000000000e+00     0.0000000000e+00
    2.8242400000e+04     0.0000000000e+00     0.0000000000e+00
    2.9713000000e+04     0.0000000000e+00     0.0000000000e+00
    3.1260100000e+04     0.0000000000e+00     0.0000000000e+00
    3.2887700000e+04     0.0000000000e+00     0.0000000000e+00
    3.4600200000e+04     0.0000000000e+00     0.0000000000e+00
    3.6401700000e+04     0.0000000000e+00     0.0000000000e+00
    3.8297100000e+04     0.0000000000e+00     0.0000000000e+00
    4.0291200000e+04     0.0000000000e+00     0.0000000000e+00
    4.2389100000e+04     0.0000000000e+00     0.0000000000e+00
    4.4596300000e+04     0.0000000000e+00     0.0000000000e+00
    4.6918300000e+04     0.0000000000e+00     0.0000000000e+00
    4.9361300000e+04     0.0000000000e+00     0.0000000000e+00
    5.1931500000e+04     0.0000000000e+00     0.0000000000e+00
    5.4635500000e+04     0.0000000000e+00     0.0000000000e+00
    5.7480300000e+04     0.0000000000e+00     0.0000000000e+00
    6.0473200000e+04     0.0000000000e+00     0.0000000000e+00
    6.3622000000e+04     0.0000000000e+00     0.0000000000e+00
    6.6934700000e+04     0.0000000000e+00     0.0000000000e+00
    7.0419900000e+04     0.0000000000e+00     0.0000000000e+00
    7.4086600000e+04     0.0000000000e+00     0.0000000000e+00
    7.7944200000e+04     0.0000000000e+00     0.0000000000e+00
    8.2002600000e+04     0.0000000000e+00     0.0000000000e+00
    8.6272400000e+04     0.0000000000e+00     0.0000000000e+00
    9.0764500000e+04     0.0000000000e+00     0.0000000000e+00
    9.5490400000e+04     0.0000000000e+00     0.0000000000e+00
    1.0046300000e+05     0.0000000000e+00     0.0000000000e+00
    1.0569300000e+05     0.0000000000e+00     0.0000000000e+00
    1.1119700000e+05     0.0000000000e+00     0.0000000000e+00
    1.1698700000e+05     0.0000000000e+00     0.0000000000e+00
    1.2307800000e+05     0.0000000000e+00     0.0000000000e+00
    1.2948600000e+05     0.0000000000e+00     0.0000000000e+00
    1.3622900000e+05     0.0000000000e+00     0.0000000000e+00
    1.4332200000e+05     0.0000000000e+00     0.0000000000e+00
    1.5078500000e+05     0.0000000000e+00     0.0000000000e+00
    1.5863600000e+05     0.0000000000e+00     0.0000000000e+00
    1.6689600000e+05     0.0000000000e+00     0.0000000000e+00
    1.7558600000e+05     0.0000000000e+00     0.0000000000e+00
    1.8472800000e+05     0.0000000000e+00     0.0000000000e+00
    1.9434700000e+05     0.0000000000e+00     0.0000000000e+00
    2.0446600000e+05     0.0000000000e+00     0.0000000000e+00
    2.1511200000e+05     0.0000000000e+00     0.0000000000e+00
    2.2631300000e+05     0.0000000000e+00     0.0000000000e+00
    2.3809700000e+05     0.0000000000e+00     0.0000000000e+00
    2.5049400000e+05     0.0000000000e+00     0.0000000000e+00
    2.6353700000e+05     0.0000000000e+00     0.0000000000e+00
    2.7725900000e+05     0.0000000000e+00     0.0000000000e+00
    2.9169600000e+05     0.0000000000e+00     0.0000000000e+00
    3.0688400000e+05     0.0000000000e+00     0.0000000000e+00
    3.2286300000e+05     0.0000000000e+00     0.0000000000e+00
    3.3967400000e+05     0.0000000000e+00     0.0000000000e+00
    3.5736000000e+05     0.0000000000e+00     0.0000000000e+00
    3.7596700000e+05     0.0000000000e+00     0.0000000000e+00
    3.9554400000e+05     0.0000000000e+00     0.0000000000e+00
    4.1613900000e+05     0.0000000000e+00     0.0000000000e+00
    4.3780700000e+05     0.0000000000e+00     0.0000000000e+00
    4.6060300000e+05     0.0000000000e+00     0.0000000000e+00
    4.8458600000e+05     0.0000000000e+00     0.0000000000e+00
    5.0981800000e+05     0.0000000000e+00     0.0000000000e+00
    5.3636300000e+05     0.0000000000e+00     0.0000000000e+00
    5.6429100000e+05     0.0000000000e+00     0.0000000000e+00
    5.9367300000e+05     0.0000000000e+00     0.0000000000e+00
    6.2458400000e+05     0.0000000000e+00     0.0000000000e+00
    6.5710600000e+05     0.0000000000e+00     0.0000000000e+00
    6.9132000000e+05     0.0000000000e+00     0.0000000000e+00
    7.2731700000e+05     0.0000000000e+00     0.0000000000e+00
    7.6518700000e+05     0.0000000000e+00     0.0000000000e+00
    8.0502900000e+05     0.0000000000e+00     0.0000000000e+00
    8.4694600000e+05     0.0000000000e+00     0.0000000000e+00
    8.9104500000e+05     0.0000000000e+00     0.0000000000e+00
    9.3744100000e+05     0.0000000000e+00     0.0000000000e+00
    9.8625200000e+05     0.0000000000e+00     0.0000000000e+00
    1.0376100000e+06     0.0000000000e+00     0.0000000000e+00
    1.0916300000e+06     0.0000000000e+00     0.0000000000e+00
    1.1484700000e+06     0.0000000000e+00     0.0000000000e+00
    1.2082700000e+06     0.0000000000e+00     0.0000000000e+00
    1.2711800000e+06     0.0000000000e+00     0.0000000000e+00
    1.3373700000e+06     0.0000000000e+00     0.0000000000e+00
    1.4070100000e+06     0.0000000000e+00     0.0000000000e+00
    1.4802700000e+06     0.0000000000e+00     0.0000000000e+00
    1.5573400000e+06     0.0000000000e+00     0.0000000000e+00
    1.6384300000e+06     0.0000000000e+00     0.0000000000e+00
    1.7237400000e+06     0.0000000000e+00     0.0000000000e+00
    1.8135000000e+06     0.0000000000e+00     0.0000000000e+00
    1.9079200000e+06     0.0000000000e+00     0.0000000000e+00
    2.0072700000e+06     0.0000000000e+00     0.0000000000e+00
    2.1117800000e+06     0.0000000000e+00     0.0000000000e+00
    2.2217400000e+06     0.0000000000e+00     0.0000000000e+00
    2.3374200000e+06     0.0000000000e+00     0.0000000000e+00
    2.4591300000e+06     0.0000000000e+00     0.0000000000e+00
    2.5871700000e+06     0.0000000000e+00     0.0000000000e+00
    2.7218800000e+06     0.0000000000e+00     0.0000000000e+00
    2.8636100000e+06     0.0000000000e+00     0.0000000000e+00
    3.0127100000e+06     0.0000000000e+00     0.0000000000e+00
    3.1695800000e+06     0.0000000000e+00     0.0000000000e+00
    3.3346200000e+06     0.0000000000e+00     0.0000000000e+00
    3.5082500000e+06     0.0000000000e+00     0.0000000000e+00
