# # E_gamma (MeV)  Final State Radiation (MeV^-1 s^-1)
5.145440e-01 9.315700e+20
5.413360e-01 8.838110e+20
5.695230e-01 8.384661e+20
5.991770e-01 7.953346e+20
6.303750e-01 7.543911e+20
6.631980e-01 7.154406e+20
6.977300e-01 6.784732e+20
7.340600e-01 6.433029e+20
7.722810e-01 6.098800e+20
8.124930e-01 5.781768e+20
8.547980e-01 5.480027e+20
8.993070e-01 5.193875e+20
9.461320e-01 4.921509e+20
9.953960e-01 4.662708e+20
1.047230e+00 4.417440e+20
1.101750e+00 4.183930e+20
1.159120e+00 3.962038e+20
1.219470e+00 3.751964e+20
1.282970e+00 3.551791e+20
1.349770e+00 3.361663e+20
1.420050e+00 3.181064e+20
1.493990e+00 3.010353e+20
1.571780e+00 2.847525e+20
1.653620e+00 2.692893e+20
1.739730e+00 2.546044e+20
1.830310e+00 2.407540e+20
1.925610e+00 2.275256e+20
2.025880e+00 2.149664e+20
2.131360e+00 2.030462e+20
2.242340e+00 1.917320e+20
2.359100e+00 1.810975e+20
2.481930e+00 1.709172e+20
2.611160e+00 1.612581e+20
2.747120e+00 1.520950e+20
2.890160e+00 1.434040e+20
3.040650e+00 1.351619e+20
3.198970e+00 1.274629e+20
3.365530e+00 1.200614e+20
3.540770e+00 1.130460e+20
3.725140e+00 1.063976e+20
3.919100e+00 1.000992e+20
4.123160e+00 9.413282e+19
4.337850e+00 8.848252e+19
4.563720e+00 8.313284e+19
4.801340e+00 7.819678e+19
5.051340e+00 7.341075e+19
5.314360e+00 6.888312e+19
5.591070e+00 6.460110e+19
5.882190e+00 6.055295e+19
6.188470e+00 5.672707e+19
6.510690e+00 5.311234e+19
6.849700e+00 4.969855e+19
7.206350e+00 4.647575e+19
7.581580e+00 4.343455e+19
7.976340e+00 4.056578e+19
8.391660e+00 3.786068e+19
8.828600e+00 3.531154e+19
9.288290e+00 3.291027e+19
9.771920e+00 3.064951e+19
1.028070e+01 2.865292e+19
1.081600e+01 2.665322e+19
1.137920e+01 2.477363e+19
1.197170e+01 2.300759e+19
1.259510e+01 2.134944e+19
1.325090e+01 1.979354e+19
1.394080e+01 1.833478e+19
1.466670e+01 1.696753e+19
1.543040e+01 1.568747e+19
1.623380e+01 1.448992e+19
1.707910e+01 1.337013e+19
1.796840e+01 1.232413e+19
1.890400e+01 1.134792e+19
1.988830e+01 1.043753e+19
2.092380e+01 9.589389e+18
2.201330e+01 8.799899e+18
2.315950e+01 8.065825e+18
2.436540e+01 7.383852e+18
2.563410e+01 6.751070e+18
2.696880e+01 6.164502e+18
2.837300e+01 5.621462e+18
2.985040e+01 5.119204e+18
3.140470e+01 4.655203e+18
3.303990e+01 4.227270e+18
3.476020e+01 3.832930e+18
3.657010e+01 3.470154e+18
3.847430e+01 3.136704e+18
4.047760e+01 2.830755e+18
4.258520e+01 2.550490e+18
4.480250e+01 2.294157e+18
4.713530e+01 2.059962e+18
4.958960e+01 1.846400e+18
5.217170e+01 1.651953e+18
5.488820e+01 1.475253e+18
5.774620e+01 1.314927e+18
6.075290e+01 1.169762e+18
6.391620e+01 1.038536e+18
6.724430e+01 9.200356e+17
7.074560e+01 8.133743e+17
7.442920e+01 7.175011e+17
7.830470e+01 6.315029e+17
8.238190e+01 5.545345e+17
8.667140e+01 4.857926e+17
9.118430e+01 4.245282e+17
9.593210e+01 3.700119e+17
1.009270e+02 3.216983e+17
1.061820e+02 2.789496e+17
1.117110e+02 2.411833e+17
1.175280e+02 2.079350e+17
1.236470e+02 1.787614e+17
1.300850e+02 1.532089e+17
1.368590e+02 1.308898e+17
1.439850e+02 1.114628e+17
1.514820e+02 9.461304e+16
1.593690e+02 8.001530e+16
1.676680e+02 6.742932e+16
1.763980e+02 5.662000e+16
1.855830e+02 4.736804e+16
1.952460e+02 3.947864e+16
2.054120e+02 3.275039e+16
2.161070e+02 2.705349e+16
2.273600e+02 2.224899e+16
2.391980e+02 1.822699e+16
2.516530e+02 1.485248e+16
2.647560e+02 1.204387e+16
2.785410e+02 9.719604e+15
2.930450e+02 7.804614e+15
3.083030e+02 6.224315e+15
3.243560e+02 4.935815e+15
3.412450e+02 3.895053e+15
3.590130e+02 3.055691e+15
3.777060e+02 2.379163e+15
3.973730e+02 1.838556e+15
4.180640e+02 1.413201e+15
4.398320e+02 1.076668e+15
4.627330e+02 8.158073e+14
4.868270e+02 6.121287e+14
5.121760e+02 4.561953e+14
5.388440e+02 3.368495e+14
5.669010e+02 2.465332e+14
5.964180e+02 1.785035e+14
6.274730e+02 1.275869e+14
6.601450e+02 9.088473e+13
6.945180e+02 6.390131e+13
7.306800e+02 4.454116e+13
7.687260e+02 3.064412e+13
8.087520e+02 2.070730e+13
8.508630e+02 1.390211e+13
8.951660e+02 9.188223e+12
9.417770e+02 6.037772e+12
9.908140e+02 3.933714e+12
1.042400e+03 2.464557e+12
1.096680e+03 1.553153e+12
1.153780e+03 9.186072e+11
1.213860e+03 5.454691e+11
1.277060e+03 2.991533e+11
1.343560e+03 1.694269e+11
1.413520e+03 9.813790e+10
1.487120e+03 5.370417e+10
1.564550e+03 2.841074e+10
1.646010e+03 1.237567e+10
1.731720e+03 5.566722e+09
1.821890e+03 3.623084e+09
1.916750e+03 1.905355e+09
2.016550e+03 4.855685e+08
2.121550e+03 0.000000e+00
