# E_gamma(MeV)   IFA_primary_masked(MeV^-1 s^-1)
5.145440e-01 1.506838e+21
5.413360e-01 1.973702e+21
5.695230e-01 2.422393e+21
5.991770e-01 2.333470e+21
6.303750e-01 2.243526e+21
6.631980e-01 2.153487e+21
6.977300e-01 2.064117e+21
7.340600e-01 1.976000e+21
7.722810e-01 1.889599e+21
8.124930e-01 1.805266e+21
8.547980e-01 1.723268e+21
8.993070e-01 1.643796e+21
9.461320e-01 1.566990e+21
9.953960e-01 1.492936e+21
1.047230e+00 1.421682e+21
1.101750e+00 1.353248e+21
1.159120e+00 1.287624e+21
1.219470e+00 1.224783e+21
1.282970e+00 1.164676e+21
1.349770e+00 1.107247e+21
1.420050e+00 1.052426e+21
1.493990e+00 1.000141e+21
1.571780e+00 9.503058e+20
1.653620e+00 9.028388e+20
1.739730e+00 8.576523e+20
1.830310e+00 8.146571e+20
1.925610e+00 7.737656e+20
2.025880e+00 7.348901e+20
2.131360e+00 6.979417e+20
2.242340e+00 6.628364e+20
2.359100e+00 6.294905e+20
2.481930e+00 5.978219e+20
2.611160e+00 5.677521e+20
2.747120e+00 5.392053e+20
2.890160e+00 5.121074e+20
3.040650e+00 4.863880e+20
3.198970e+00 4.619790e+20
3.365530e+00 4.388151e+20
3.540770e+00 4.168343e+20
3.725140e+00 3.959765e+20
3.919100e+00 3.761850e+20
4.123160e+00 3.574056e+20
4.337850e+00 3.395866e+20
4.563720e+00 3.226787e+20
4.801340e+00 3.066352e+20
5.051340e+00 2.914113e+20
5.314360e+00 2.769647e+20
5.591070e+00 2.632552e+20
5.882190e+00 2.502447e+20
6.188470e+00 2.378967e+20
6.510690e+00 2.261770e+20
6.849700e+00 2.150529e+20
7.206350e+00 2.044932e+20
7.581580e+00 1.944687e+20
7.976340e+00 1.849518e+20
8.391660e+00 1.759161e+20
8.828600e+00 1.673365e+20
9.288290e+00 1.591894e+20
9.771920e+00 1.514525e+20
1.028070e+01 1.441042e+20
1.081600e+01 1.371244e+20
1.137920e+01 1.304939e+20
1.197170e+01 1.241949e+20
1.259510e+01 1.182103e+20
1.325090e+01 1.125238e+20
1.394080e+01 1.071201e+20
1.466670e+01 1.019848e+20
1.543040e+01 9.710386e+19
1.623380e+01 9.246424e+19
1.707910e+01 8.805365e+19
1.796840e+01 8.386036e+19
1.890400e+01 7.987326e+19
1.988830e+01 7.608185e+19
2.092380e+01 7.247611e+19
2.201330e+01 6.904663e+19
2.315950e+01 6.578446e+19
2.436540e+01 6.268108e+19
2.563410e+01 5.972851e+19
2.696880e+01 5.691911e+19
2.837300e+01 5.424565e+19
2.985040e+01 5.170125e+19
3.140470e+01 4.927945e+19
3.303990e+01 4.697409e+19
3.476020e+01 4.477931e+19
3.657010e+01 4.268963e+19
3.847430e+01 4.069979e+19
4.047760e+01 3.880477e+19
4.258520e+01 3.699986e+19
4.480250e+01 3.528060e+19
4.713530e+01 3.364271e+19
4.958960e+01 3.208216e+19
5.217170e+01 3.059511e+19
5.488820e+01 2.917795e+19
5.774620e+01 2.782718e+19
6.075290e+01 2.653954e+19
6.391620e+01 2.531193e+19
6.724430e+01 2.414134e+19
7.074560e+01 2.302499e+19
7.442920e+01 2.196021e+19
7.830470e+01 2.094447e+19
8.238190e+01 1.997532e+19
8.667140e+01 1.905054e+19
9.118430e+01 1.816790e+19
9.593210e+01 1.732532e+19
1.009270e+02 1.652081e+19
1.061820e+02 1.575248e+19
1.117110e+02 1.501857e+19
1.175280e+02 1.431733e+19
1.236470e+02 1.364712e+19
1.300850e+02 1.300643e+19
1.368590e+02 1.239374e+19
1.439850e+02 1.180759e+19
1.514820e+02 1.124669e+19
1.593690e+02 1.070974e+19
1.676680e+02 1.019548e+19
1.763980e+02 9.702716e+18
1.855830e+02 9.230340e+18
1.952460e+02 8.777229e+18
2.054120e+02 8.342329e+18
2.161070e+02 7.924704e+18
2.273600e+02 7.523334e+18
2.391980e+02 7.137294e+18
2.516530e+02 6.765681e+18
2.647560e+02 6.407577e+18
2.785410e+02 6.062148e+18
2.930450e+02 5.728658e+18
3.083030e+02 5.406330e+18
3.243560e+02 5.094441e+18
3.412450e+02 4.792358e+18
3.590130e+02 4.499316e+18
3.777060e+02 4.214701e+18
3.973730e+02 3.937921e+18
4.180640e+02 3.668411e+18
4.398320e+02 3.405691e+18
4.627330e+02 3.149381e+18
4.868270e+02 2.899143e+18
5.121760e+02 2.654788e+18
5.388440e+02 2.416261e+18
5.669010e+02 2.183783e+18
5.964180e+02 1.957750e+18
6.274730e+02 1.738874e+18
6.601450e+02 1.528178e+18
6.945180e+02 1.327069e+18
7.306800e+02 1.137122e+18
7.687260e+02 9.601707e+17
8.087520e+02 7.979581e+17
8.508630e+02 6.521980e+17
8.951660e+02 5.239393e+17
9.417770e+02 4.136715e+17
9.908140e+02 3.211496e+17
1.042400e+03 2.454552e+17
1.096680e+03 1.848835e+17
1.153780e+03 1.375228e+17
1.213860e+03 1.012107e+17
1.277060e+03 7.380990e+16
1.343560e+03 5.338067e+16
1.413520e+03 3.825527e+16
1.487120e+03 2.709503e+16
1.564550e+03 1.887607e+16
1.646010e+03 1.287039e+16
1.731720e+03 8.535320e+15
1.821890e+03 5.479354e+15
1.916750e+03 3.396886e+15
2.016550e+03 2.046870e+15
2.121550e+03 1.185760e+15
2.232020e+03 6.804382e+14
2.348230e+03 3.854362e+14
2.470500e+03 2.342839e+14
2.599140e+03 1.573750e+14
2.734470e+03 1.326446e+14
2.876850e+03 1.112738e+14
3.026650e+03 1.006815e+14
3.184240e+03 7.842687e+13
3.350040e+03 5.519515e+13
3.524470e+03 0.000000e+00
3.707990e+03 0.000000e+00
3.901060e+03 0.000000e+00
4.104180e+03 0.000000e+00
4.317880e+03 0.000000e+00
4.542710e+03 0.000000e+00
4.779240e+03 0.000000e+00
5.028090e+03 0.000000e+00
5.289890e+03 0.000000e+00
5.565330e+03 0.000000e+00
5.855110e+03 0.000000e+00
6.159980e+03 0.000000e+00
6.480720e+03 0.000000e+00
6.818160e+03 0.000000e+00
7.173170e+03 0.000000e+00
7.546670e+03 0.000000e+00
7.939620e+03 0.000000e+00
8.353020e+03 0.000000e+00
8.787950e+03 0.000000e+00
9.245530e+03 0.000000e+00
9.726930e+03 0.000000e+00
1.023340e+04 0.000000e+00
1.076620e+04 0.000000e+00
1.132680e+04 0.000000e+00
1.191660e+04 0.000000e+00
1.253710e+04 0.000000e+00
1.318990e+04 0.000000e+00
1.387660e+04 0.000000e+00
1.459920e+04 0.000000e+00
1.535930e+04 0.000000e+00
1.615910e+04 0.000000e+00
1.700050e+04 0.000000e+00
1.788570e+04 0.000000e+00
1.881690e+04 0.000000e+00
1.979670e+04 0.000000e+00
2.082750e+04 0.000000e+00
2.191200e+04 0.000000e+00
2.305290e+04 0.000000e+00
2.425320e+04 0.000000e+00
2.551610e+04 0.000000e+00
2.684460e+04 0.000000e+00
2.824240e+04 0.000000e+00
2.971300e+04 0.000000e+00
3.126010e+04 0.000000e+00
3.288770e+04 0.000000e+00
3.460020e+04 0.000000e+00
3.640170e+04 0.000000e+00
3.829710e+04 0.000000e+00
4.029120e+04 0.000000e+00
4.238910e+04 0.000000e+00
4.459630e+04 0.000000e+00
4.691830e+04 0.000000e+00
4.936130e+04 0.000000e+00
5.193150e+04 0.000000e+00
5.463550e+04 0.000000e+00
5.748030e+04 0.000000e+00
6.047320e+04 0.000000e+00
6.362200e+04 0.000000e+00
6.693470e+04 0.000000e+00
7.041990e+04 0.000000e+00
7.408660e+04 0.000000e+00
7.794420e+04 0.000000e+00
8.200260e+04 0.000000e+00
8.627240e+04 0.000000e+00
9.076450e+04 0.000000e+00
9.549040e+04 0.000000e+00
1.004630e+05 0.000000e+00
1.056930e+05 0.000000e+00
1.111970e+05 0.000000e+00
1.169870e+05 0.000000e+00
1.230780e+05 0.000000e+00
1.294860e+05 0.000000e+00
1.362290e+05 0.000000e+00
