# E_gamma(MeV)   IFA_primary_masked(MeV^-1 s^-1)
5.145440e-01 1.047362e+20
5.413360e-01 1.451425e+20
5.695230e-01 1.863747e+20
5.991770e-01 1.971579e+20
6.303750e-01 2.026394e+20
6.631980e-01 2.042959e+20
6.977300e-01 2.031920e+20
7.340600e-01 2.000973e+20
7.722810e-01 1.955769e+20
8.124930e-01 1.900539e+20
8.547980e-01 1.838482e+20
8.993070e-01 1.772044e+20
9.461320e-01 1.703121e+20
9.953960e-01 1.633147e+20
1.047230e+00 1.563163e+20
1.101750e+00 1.493925e+20
1.159120e+00 1.425968e+20
1.219470e+00 1.359678e+20
1.282970e+00 1.295327e+20
1.349770e+00 1.233115e+20
1.420050e+00 1.173164e+20
1.493990e+00 1.115552e+20
1.571780e+00 1.060311e+20
1.653620e+00 1.007445e+20
1.739730e+00 9.569319e+19
1.830310e+00 9.087307e+19
1.925610e+00 8.627891e+19
2.025880e+00 8.190430e+19
2.131360e+00 7.774200e+19
2.242340e+00 7.378452e+19
2.359100e+00 7.002398e+19
2.481930e+00 6.645216e+19
2.611160e+00 6.306110e+19
2.747120e+00 5.984267e+19
2.890160e+00 5.678894e+19
3.040650e+00 5.389219e+19
3.198970e+00 5.114478e+19
3.365530e+00 4.853944e+19
3.540770e+00 4.606914e+19
3.725140e+00 4.372705e+19
3.919100e+00 4.150661e+19
4.123160e+00 3.940163e+19
4.337850e+00 3.740614e+19
4.563720e+00 3.551440e+19
4.801340e+00 3.372096e+19
5.051340e+00 3.202067e+19
5.314360e+00 3.040862e+19
5.591070e+00 2.888003e+19
5.882190e+00 2.743055e+19
6.188470e+00 2.605594e+19
6.510690e+00 2.475222e+19
6.849700e+00 2.351555e+19
7.206350e+00 2.234240e+19
7.581580e+00 2.122933e+19
7.976340e+00 2.017311e+19
8.391660e+00 1.917072e+19
8.828600e+00 1.821928e+19
9.288290e+00 1.731606e+19
9.771920e+00 1.645836e+19
1.028070e+01 1.564393e+19
1.081600e+01 1.487033e+19
1.137920e+01 1.413532e+19
1.197170e+01 1.343691e+19
1.259510e+01 1.277323e+19
1.325090e+01 1.214233e+19
1.394080e+01 1.154238e+19
1.466670e+01 1.097189e+19
1.543040e+01 1.042924e+19
1.623380e+01 9.912860e+18
1.707910e+01 9.421291e+18
1.796840e+01 8.953339e+18
1.890400e+01 8.507707e+18
1.988830e+01 8.083026e+18
2.092380e+01 7.678275e+18
2.201330e+01 7.292355e+18
2.315950e+01 6.924242e+18
2.436540e+01 6.572910e+18
2.563410e+01 6.237536e+18
2.696880e+01 5.917180e+18
2.837300e+01 5.611008e+18
2.985040e+01 5.318221e+18
3.140470e+01 5.038020e+18
3.303990e+01 4.769742e+18
3.476020e+01 4.512764e+18
3.657010e+01 4.266238e+18
3.847430e+01 4.029622e+18
4.047760e+01 3.802312e+18
4.258520e+01 3.583790e+18
4.480250e+01 3.373291e+18
4.713530e+01 3.170616e+18
4.958960e+01 2.975135e+18
5.217170e+01 2.786435e+18
5.488820e+01 2.603952e+18
5.774620e+01 2.427417e+18
6.075290e+01 2.256401e+18
6.391620e+01 2.090595e+18
6.724430e+01 1.929705e+18
7.074560e+01 1.773579e+18
7.442920e+01 1.622003e+18
7.830470e+01 1.474898e+18
8.238190e+01 1.332336e+18
8.667140e+01 1.194497e+18
9.118430e+01 1.061656e+18
9.593210e+01 9.343849e+17
1.009270e+02 8.132860e+17
1.061820e+02 6.991553e+17
1.117110e+02 5.928846e+17
1.175280e+02 4.953735e+17
1.236470e+02 4.074294e+17
1.300850e+02 3.296484e+17
1.368590e+02 2.623156e+17
1.439850e+02 2.053434e+17
1.514820e+02 1.582383e+17
1.593690e+02 1.201837e+17
1.676680e+02 9.011018e+16
1.763980e+02 6.681253e+16
1.855830e+02 4.906100e+16
1.952460e+02 3.571534e+16
2.054120e+02 2.576907e+16
2.161070e+02 1.839256e+16
2.273600e+02 1.293906e+16
2.391980e+02 8.923322e+15
2.516530e+02 6.001579e+15
2.647560e+02 3.916077e+15
2.785410e+02 2.473113e+15
2.930450e+02 1.496010e+15
3.083030e+02 8.890295e+14
3.243560e+02 5.060185e+14
3.412450e+02 2.834224e+14
3.590130e+02 1.500622e+14
3.777060e+02 9.009344e+13
3.973730e+02 4.120351e+13
4.180640e+02 2.389780e+13
4.398320e+02 1.009072e+13
4.627330e+02 5.491412e+12
4.868270e+02 2.107440e+12
5.121760e+02 8.801883e+11
5.388440e+02 4.113343e+11
5.669010e+02 1.495528e+11
5.964180e+02 6.166564e+10
6.274730e+02 2.104634e+10
6.601450e+02 7.719103e+09
6.945180e+02 2.698221e+09
7.306800e+02 8.296569e+08
7.687260e+02 2.320093e+08
8.087520e+02 6.186508e+07
8.508630e+02 1.476662e+07
8.951660e+02 3.410456e+06
9.417770e+02 7.306370e+05
9.908140e+02 1.368004e+05
1.042400e+03 1.462333e+04
1.096680e+03 3.171300e+03
1.153780e+03 4.735835e+02
1.213860e+03 6.746806e+01
1.277060e+03 9.648703e+00
1.343560e+03 1.008423e+00
1.413520e+03 2.781029e-01
1.487120e+03 2.954664e-02
1.564550e+03 0.000000e+00
1.646010e+03 0.000000e+00
1.731720e+03 0.000000e+00
1.821890e+03 0.000000e+00
1.916750e+03 0.000000e+00
2.016550e+03 0.000000e+00
2.121550e+03 0.000000e+00
2.232020e+03 0.000000e+00
2.348230e+03 0.000000e+00
2.470500e+03 0.000000e+00
2.599140e+03 0.000000e+00
2.734470e+03 0.000000e+00
2.876850e+03 0.000000e+00
3.026650e+03 0.000000e+00
3.184240e+03 0.000000e+00
3.350040e+03 0.000000e+00
3.524470e+03 0.000000e+00
3.707990e+03 0.000000e+00
3.901060e+03 0.000000e+00
4.104180e+03 0.000000e+00
4.317880e+03 0.000000e+00
4.542710e+03 0.000000e+00
4.779240e+03 0.000000e+00
5.028090e+03 0.000000e+00
5.289890e+03 0.000000e+00
5.565330e+03 0.000000e+00
5.855110e+03 0.000000e+00
6.159980e+03 0.000000e+00
6.480720e+03 0.000000e+00
6.818160e+03 0.000000e+00
7.173170e+03 0.000000e+00
7.546670e+03 0.000000e+00
7.939620e+03 0.000000e+00
8.353020e+03 0.000000e+00
8.787950e+03 0.000000e+00
9.245530e+03 0.000000e+00
9.726930e+03 0.000000e+00
1.023340e+04 0.000000e+00
1.076620e+04 0.000000e+00
1.132680e+04 0.000000e+00
1.191660e+04 0.000000e+00
1.253710e+04 0.000000e+00
1.318990e+04 0.000000e+00
1.387660e+04 0.000000e+00
1.459920e+04 0.000000e+00
1.535930e+04 0.000000e+00
1.615910e+04 0.000000e+00
1.700050e+04 0.000000e+00
1.788570e+04 0.000000e+00
1.881690e+04 0.000000e+00
1.979670e+04 0.000000e+00
2.082750e+04 0.000000e+00
