# E_gamma(MeV)   IFA_secondary_masked(MeV^-1 s^-1)
5.145440e-01 4.345303e+18
5.413360e-01 8.161329e+18
5.695230e-01 1.303146e+19
5.991770e-01 1.827543e+19
6.303750e-01 2.317348e+19
6.631980e-01 2.718812e+19
6.977300e-01 3.014115e+19
7.340600e-01 3.208382e+19
7.722810e-01 3.316000e+19
8.124930e-01 3.353334e+19
8.547980e-01 3.335630e+19
8.993070e-01 3.276093e+19
9.461320e-01 3.185690e+19
9.953960e-01 3.073341e+19
1.047230e+00 2.946146e+19
1.101750e+00 2.809671e+19
1.159120e+00 2.668123e+19
1.219470e+00 2.524683e+19
1.282970e+00 2.381715e+19
1.349770e+00 2.240998e+19
1.420050e+00 2.103810e+19
1.493990e+00 1.971071e+19
1.571780e+00 1.843406e+19
1.653620e+00 1.721232e+19
1.739730e+00 1.604797e+19
1.830310e+00 1.494214e+19
1.925610e+00 1.389502e+19
2.025880e+00 1.290606e+19
2.131360e+00 1.197405e+19
2.242340e+00 1.109743e+19
2.359100e+00 1.027431e+19
2.481930e+00 9.502589e+18
2.611160e+00 8.780044e+18
2.747120e+00 8.104426e+18
2.890160e+00 7.473419e+18
3.040650e+00 6.884741e+18
3.198970e+00 6.336130e+18
3.365530e+00 5.825373e+18
3.540770e+00 5.350316e+18
3.725140e+00 4.908881e+18
3.919100e+00 4.499073e+18
4.123160e+00 4.118982e+18
4.337850e+00 3.766794e+18
4.563720e+00 3.440766e+18
4.801340e+00 3.139242e+18
5.051340e+00 2.860655e+18
5.314360e+00 2.603522e+18
5.591070e+00 2.366431e+18
5.882190e+00 2.148051e+18
6.188470e+00 1.947142e+18
6.510690e+00 1.762494e+18
6.849700e+00 1.593001e+18
7.206350e+00 1.437605e+18
7.581580e+00 1.295319e+18
7.976340e+00 1.165206e+18
8.391660e+00 1.046406e+18
8.828600e+00 9.380915e+17
9.288290e+00 8.394577e+17
9.771920e+00 7.497877e+17
1.028070e+01 6.683919e+17
1.081600e+01 5.946379e+17
1.137920e+01 5.279097e+17
1.197170e+01 4.676763e+17
1.259510e+01 4.133938e+17
1.325090e+01 3.645727e+17
1.394080e+01 3.207502e+17
1.466670e+01 2.815012e+17
1.543040e+01 2.464236e+17
1.623380e+01 2.151484e+17
1.707910e+01 1.873267e+17
1.796840e+01 1.626402e+17
1.890400e+01 1.407937e+17
1.988830e+01 1.215123e+17
2.092380e+01 1.045398e+17
2.201330e+01 8.964385e+16
2.315950e+01 7.660932e+16
2.436540e+01 6.523835e+16
2.563410e+01 5.535167e+16
2.696880e+01 4.678438e+16
2.837300e+01 3.938752e+16
2.985040e+01 3.302485e+16
3.140470e+01 2.757314e+16
3.303990e+01 2.291839e+16
3.476020e+01 1.896349e+16
3.657010e+01 1.561920e+16
3.847430e+01 1.280031e+16
4.047760e+01 1.043599e+16
4.258520e+01 8.464527e+15
4.480250e+01 6.827225e+15
4.713530e+01 5.474027e+15
4.958960e+01 4.363349e+15
5.217170e+01 3.456411e+15
5.488820e+01 2.720554e+15
5.774620e+01 2.127380e+15
6.075290e+01 1.651819e+15
6.391620e+01 1.273940e+15
6.724430e+01 9.756449e+14
7.074560e+01 7.416849e+14
7.442920e+01 5.595980e+14
7.830470e+01 4.189995e+14
8.238190e+01 3.111588e+14
8.667140e+01 2.290960e+14
9.118430e+01 1.673514e+14
9.593210e+01 1.211530e+14
1.009270e+02 8.683191e+13
1.061820e+02 6.158882e+13
1.117110e+02 4.318836e+13
1.175280e+02 2.987282e+13
1.236470e+02 2.036918e+13
1.300850e+02 1.368694e+13
1.368590e+02 9.033598e+12
1.439850e+02 5.814003e+12
1.514820e+02 3.670214e+12
1.593690e+02 2.261627e+12
1.676680e+02 1.344731e+12
1.763980e+02 7.790359e+11
1.855830e+02 4.692782e+11
1.952460e+02 2.810685e+11
2.054120e+02 1.587976e+11
2.161070e+02 8.112814e+10
2.273600e+02 3.385945e+10
2.391980e+02 8.234162e+09
