# # E_gamma (MeV)  Final State Radiation (MeV^-1 s^-1)
5.145440e-01 1.004791e+20
5.413360e-01 9.549137e+19
5.695230e-01 9.075053e+19
5.991770e-01 8.624443e+19
6.303750e-01 8.196134e+19
6.631980e-01 7.789017e+19
6.977300e-01 7.402050e+19
7.340600e-01 7.034235e+19
7.722810e-01 6.684630e+19
8.124930e-01 6.352321e+19
8.547980e-01 6.036465e+19
8.993070e-01 5.736233e+19
9.461320e-01 5.450870e+19
9.953960e-01 5.179626e+19
1.047230e+00 4.921783e+19
1.101750e+00 4.676760e+19
1.159120e+00 4.443818e+19
1.219470e+00 4.222431e+19
1.282970e+00 4.011976e+19
1.349770e+00 3.811957e+19
1.420050e+00 3.621833e+19
1.493990e+00 3.441117e+19
1.571780e+00 3.269346e+19
1.653620e+00 3.106078e+19
1.739730e+00 2.950877e+19
1.830310e+00 2.803380e+19
1.925610e+00 2.663178e+19
2.025880e+00 2.529906e+19
2.131360e+00 2.403244e+19
2.242340e+00 2.282843e+19
2.359100e+00 2.168401e+19
2.481930e+00 2.059633e+19
2.611160e+00 1.956246e+19
2.747120e+00 1.857977e+19
2.890160e+00 1.764571e+19
3.040650e+00 1.675790e+19
3.198970e+00 1.591407e+19
3.365530e+00 1.511203e+19
3.540770e+00 1.434968e+19
3.725140e+00 1.362505e+19
3.919100e+00 1.293634e+19
4.123160e+00 1.228174e+19
4.337850e+00 1.165954e+19
4.563720e+00 1.106816e+19
4.801340e+00 1.050610e+19
5.051340e+00 9.971867e+18
5.314360e+00 9.464094e+18
5.591070e+00 8.981491e+18
5.882190e+00 8.522799e+18
6.188470e+00 8.086838e+18
6.510690e+00 7.672498e+18
6.849700e+00 7.278684e+18
7.206350e+00 6.904410e+18
7.581580e+00 6.548690e+18
7.976340e+00 6.210622e+18
8.391660e+00 5.889323e+18
8.828600e+00 5.583975e+18
9.288290e+00 5.293786e+18
9.771920e+00 5.018004e+18
1.028070e+01 4.755950e+18
1.081600e+01 4.506895e+18
1.137920e+01 4.270212e+18
1.197170e+01 4.045311e+18
1.259510e+01 3.831587e+18
1.325090e+01 3.628523e+18
1.394080e+01 3.435588e+18
1.466670e+01 3.252252e+18
1.543040e+01 3.078062e+18
1.623380e+01 2.912583e+18
1.707910e+01 2.755361e+18
1.796840e+01 2.606005e+18
1.890400e+01 2.464128e+18
1.988830e+01 2.329364e+18
2.092380e+01 2.201370e+18
2.201330e+01 2.079799e+18
2.315950e+01 1.964348e+18
2.436540e+01 1.854714e+18
2.563410e+01 1.750614e+18
2.696880e+01 1.651783e+18
2.837300e+01 1.557959e+18
2.985040e+01 1.468895e+18
3.140470e+01 1.384365e+18
3.303990e+01 1.304148e+18
3.476020e+01 1.228036e+18
3.657010e+01 1.155827e+18
3.847430e+01 1.087329e+18
4.047760e+01 1.022367e+18
4.258520e+01 9.607681e+17
4.480250e+01 9.023698e+17
4.713530e+01 8.470149e+17
4.958960e+01 7.945561e+17
5.217170e+01 7.448535e+17
5.488820e+01 6.977738e+17
5.774620e+01 6.531875e+17
6.075290e+01 6.109751e+17
6.391620e+01 5.710178e+17
6.724430e+01 5.332042e+17
7.074560e+01 4.974296e+17
7.442920e+01 4.635915e+17
7.830470e+01 4.315913e+17
8.238190e+01 4.013368e+17
8.667140e+01 3.727373e+17
9.118430e+01 3.457060e+17
9.593210e+01 3.201600e+17
1.009270e+02 2.960191e+17
1.061820e+02 2.732046e+17
1.117110e+02 2.516401e+17
1.175280e+02 2.312544e+17
1.236470e+02 2.119800e+17
1.300850e+02 1.937456e+17
1.368590e+02 1.764858e+17
1.439850e+02 1.601438e+17
1.514820e+02 1.446612e+17
1.593690e+02 1.299883e+17
1.676680e+02 1.160801e+17
1.763980e+02 1.029070e+17
1.855830e+02 9.045107e+16
1.952460e+02 7.870928e+16
2.054120e+02 6.769776e+16
2.161070e+02 5.745719e+16
2.273600e+02 4.803502e+16
2.391980e+02 3.950049e+16
2.516530e+02 3.191182e+16
2.647560e+02 2.530914e+16
2.785410e+02 1.970791e+16
2.930450e+02 1.507618e+16
3.083030e+02 1.134774e+16
3.243560e+02 8.418499e+15
3.412450e+02 6.173721e+15
3.590130e+02 4.484952e+15
3.777060e+02 3.234127e+15
3.973730e+02 2.320133e+15
4.180640e+02 1.649703e+15
4.398320e+02 1.158763e+15
4.627330e+02 7.976759e+14
4.868270e+02 5.321154e+14
5.121760e+02 3.415252e+14
5.388440e+02 2.100492e+14
5.669010e+02 1.242432e+14
5.964180e+02 7.174700e+13
6.274730e+02 4.052640e+13
6.601450e+02 2.267032e+13
6.945180e+02 1.254195e+13
7.306800e+02 6.690897e+12
7.687260e+02 3.388524e+12
8.087520e+02 1.604547e+12
8.508630e+02 7.196790e+11
8.951660e+02 3.210472e+11
9.417770e+02 1.386458e+11
9.908140e+02 5.779880e+10
1.042400e+03 2.243048e+10
1.096680e+03 7.913510e+09
1.153780e+03 2.755262e+09
1.213860e+03 9.237652e+08
1.277060e+03 2.827190e+08
1.343560e+03 8.292597e+07
1.413520e+03 2.191351e+07
1.487120e+03 5.662782e+06
1.564550e+03 1.352994e+06
1.646010e+03 2.757195e+05
1.731720e+03 5.868787e+04
1.821890e+03 1.059818e+04
1.916750e+03 1.614323e+03
2.016550e+03 2.811268e+02
2.121550e+03 3.579495e+01
2.232020e+03 4.455582e+00
2.348230e+03 5.241352e-01
2.470500e+03 4.622866e-02
2.599140e+03 4.479790e-03
2.734470e+03 3.358988e-04
2.876850e+03 1.743804e-05
3.026650e+03 1.399589e-06
3.184240e+03 6.070814e-08
3.350040e+03 2.986683e-09
3.524470e+03 1.119702e-10
3.707990e+03 3.244682e-12
3.901060e+03 8.938676e-14
4.104180e+03 2.228918e-15
4.317880e+03 3.834474e-17
4.542710e+03 5.272812e-19
4.779240e+03 7.156153e-21
5.028090e+03 6.581512e-23
5.289890e+03 4.498906e-25
5.565330e+03 3.001529e-27
5.855110e+03 1.180074e-29
6.159980e+03 4.149414e-32
6.480720e+03 1.040593e-34
6.818160e+03 1.782610e-37
7.173170e+03 2.514245e-40
7.546670e+03 2.148601e-43
7.939620e+03 1.452688e-46
8.353020e+03 6.345034e-50
8.787950e+03 1.722987e-53
9.245530e+03 3.769756e-57
9.726930e+03 4.117283e-61
1.023340e+04 3.098371e-65
1.076620e+04 1.624380e-69
1.132680e+04 4.478111e-74
1.191660e+04 6.611825e-79
1.253710e+04 5.722917e-84
1.318990e+04 2.839153e-89
1.387660e+04 7.535687e-95
1.459920e+04 1.010641e-100
1.535930e+04 6.599812e-107
1.615910e+04 2.062254e-113
1.700050e+04 3.111970e-120
1.788570e+04 2.179777e-127
1.881690e+04 5.702389e-135
1.979670e+04 5.520669e-143
2.082750e+04 2.670974e-151
2.191200e+04 3.528701e-160
2.305290e+04 2.168870e-169
2.425320e+04 3.341805e-179
2.551610e+04 1.778197e-189
2.684460e+04 3.025894e-200
2.824240e+04 1.351478e-211
2.971300e+04 1.480138e-223
3.126010e+04 3.671617e-236
3.288770e+04 2.021348e-249
3.460020e+04 2.756800e-263
3.640170e+04 5.553973e-278
3.829710e+04 2.443264e-293
4.029120e+04 0.000000e+00
