# # E_gamma (MeV)  Final State Radiation (MeV^-1 s^-1)
5.145440e-01 6.671354e+14
5.413360e-01 6.019481e+14
5.695230e-01 5.545459e+14
5.991770e-01 4.982249e+14
6.303750e-01 4.580642e+14
6.631980e-01 4.098083e+14
6.977300e-01 3.759276e+14
7.340600e-01 3.348830e+14
7.722810e-01 2.969790e+14
8.124930e-01 2.718414e+14
8.547980e-01 2.400440e+14
8.993070e-01 2.191076e+14
9.461320e-01 1.926544e+14
9.953960e-01 1.686350e+14
1.047230e+00 1.534933e+14
1.101750e+00 1.337800e+14
1.159120e+00 1.160461e+14
1.219470e+00 1.052781e+14
1.282970e+00 9.091086e+13
1.349770e+00 7.813423e+13
1.420050e+00 6.682618e+13
1.493990e+00 6.041416e+13
1.571780e+00 5.142247e+13
1.653620e+00 4.354595e+13
1.739730e+00 3.669051e+13
1.830310e+00 3.302650e+13
1.925610e+00 2.769840e+13
2.025880e+00 2.310796e+13
2.131360e+00 1.916384e+13
2.242340e+00 1.581009e+13
2.359100e+00 1.415860e+13
2.481930e+00 1.162559e+13
2.611160e+00 9.490157e+12
2.747120e+00 7.705123e+12
2.890160e+00 6.216081e+12
3.040650e+00 4.992578e+12
3.198970e+00 4.444030e+12
3.365530e+00 3.557580e+12
3.540770e+00 2.831030e+12
3.725140e+00 2.244459e+12
3.919100e+00 1.772849e+12
4.123160e+00 1.396619e+12
4.337850e+00 1.095674e+12
4.563720e+00 8.597406e+11
4.801340e+00 7.625090e+11
5.051340e+00 6.012401e+11
5.314360e+00 4.750624e+11
5.591070e+00 3.786502e+11
5.882190e+00 3.044827e+11
6.188470e+00 2.456399e+11
6.510690e+00 2.008554e+11
6.849700e+00 1.661293e+11
7.206350e+00 1.391627e+11
7.581580e+00 1.191869e+11
7.976340e+00 1.023504e+11
8.391660e+00 8.824717e+10
8.828600e+00 7.471825e+10
9.288290e+00 5.325337e+10
9.771920e+00 3.414575e+10
1.028070e+01 2.988112e+10
1.081600e+01 2.301861e+10
1.137920e+01 1.684228e+10
1.197170e+01 1.147415e+10
1.259510e+01 8.245913e+09
1.325090e+01 5.050593e+09
1.394080e+01 3.911076e+09
1.466670e+01 3.019195e+09
1.543040e+01 1.887872e+09
1.623380e+01 1.262049e+09
1.707910e+01 8.996726e+08
1.796840e+01 5.795528e+08
1.890400e+01 3.889253e+08
1.988830e+01 1.470501e+08
2.092380e+01 8.438399e+07
2.201330e+01 5.101850e+07
2.315950e+01 2.971381e+07
2.436540e+01 1.659903e+07
2.563410e+01 1.167791e+07
2.696880e+01 2.826009e+06
2.837300e+01 1.431699e+06
2.985040e+01 4.736585e+05
3.140470e+01 1.523053e+05
3.303990e+01 7.940616e+04
3.476020e+01 4.153564e+04
3.657010e+01 1.409593e+04
3.847430e+01 6.728559e+03
4.047760e+01 4.644554e+03
4.258520e+01 1.383490e+03
4.480250e+01 1.887283e+02
4.713530e+01 1.292026e+01
4.958960e+01 5.078365e+00
5.217170e+01 1.931261e+00
5.488820e+01 7.214979e-01
5.774620e+01 2.346305e-01
6.075290e+01 6.571974e-03
6.391620e+01 2.364331e-03
6.724430e+01 6.556338e-04
7.074560e+01 1.766186e-05
7.442920e+01 1.325727e-06
7.830470e+01 8.632242e-08
8.238190e+01 3.937593e-08
8.667140e+01 1.601509e-08
9.118430e+01 5.135931e-09
9.593210e+01 4.269439e-10
1.009270e+02 7.734079e-12
1.061820e+02 1.315868e-13
1.117110e+02 5.541097e-14
1.175280e+02 3.123954e-15
1.236470e+02 1.588031e-18
1.300850e+02 3.001312e-20
1.368590e+02 1.246853e-21
1.439850e+02 8.764975e-22
1.514820e+02 2.092251e-25
1.593690e+02 1.016704e-27
1.676680e+02 1.175407e-29
1.763980e+02 6.717029e-32
1.855830e+02 3.242663e-34
1.952460e+02 1.474892e-34
2.054120e+02 1.600016e-39
2.161070e+02 2.702809e-42
2.273600e+02 3.272857e-45
2.391980e+02 4.564443e-48
2.516530e+02 3.532160e-48
2.647560e+02 1.107951e-54
2.785410e+02 3.313284e-55
2.930450e+02 4.727494e-59
3.083030e+02 2.288179e-66
3.243560e+02 4.799722e-67
3.412450e+02 3.350430e-70
3.590130e+02 1.724831e-75
3.777060e+02 4.243492e-84
3.973730e+02 6.786756e-89
4.180640e+02 2.757850e-89
4.398320e+02 6.704819e-95
4.627330e+02 9.462146e-106
4.868270e+02 1.910932e-112
5.121760e+02 3.403974e-118
5.388440e+02 1.881866e-118
5.669010e+02 1.163380e-125
5.964180e+02 6.615838e-141
6.274730e+02 5.648752e-148
6.601450e+02 3.246421e-148
6.945180e+02 1.426963e-156
7.306800e+02 2.302965e-165
7.687260e+02 4.324559e-175
8.087520e+02 1.889711e-184
8.508630e+02 1.409299e-205
8.951660e+02 6.473792e-216
9.417770e+02 5.403632e-216
9.908140e+02 8.328885e-229
1.042400e+03 1.073404e-240
1.096680e+03 9.570427e-268
1.153780e+03 7.250471e-268
1.213860e+03 2.990722e-298
1.277060e+03 0.000000e+00
