# # E_gamma (MeV)  Final State Radiation (MeV^-1 s^-1)
5.145440e-01 3.393353e+14
5.413360e-01 3.045322e+14
5.695230e-01 2.799855e+14
5.991770e-01 2.500857e+14
6.303750e-01 2.294415e+14
6.631980e-01 2.040010e+14
6.977300e-01 1.867175e+14
7.340600e-01 1.652265e+14
7.722810e-01 1.454832e+14
8.124930e-01 1.328708e+14
8.547980e-01 1.164423e+14
8.993070e-01 1.060309e+14
9.461320e-01 9.249187e+13
9.953960e-01 8.028941e+13
1.047230e+00 7.289978e+13
1.101750e+00 6.297652e+13
1.159120e+00 5.412248e+13
1.219470e+00 4.897487e+13
1.282970e+00 4.188514e+13
1.349770e+00 3.563703e+13
1.420050e+00 3.015606e+13
1.493990e+00 2.719386e+13
1.571780e+00 2.289470e+13
1.653620e+00 1.916873e+13
1.739730e+00 1.596378e+13
1.830310e+00 1.433384e+13
1.925610e+00 1.187709e+13
2.025880e+00 9.790507e+12
2.131360e+00 8.017733e+12
2.242340e+00 6.532851e+12
2.359100e+00 5.838243e+12
2.481930e+00 4.735668e+12
2.611160e+00 3.819638e+12
2.747120e+00 3.066588e+12
2.890160e+00 2.447716e+12
3.040650e+00 1.946775e+12
3.198970e+00 1.731922e+12
3.365530e+00 1.375964e+12
3.540770e+00 1.089378e+12
3.725140e+00 8.611802e+11
3.919100e+00 6.796107e+11
4.123160e+00 5.379432e+11
4.337850e+00 4.271537e+11
4.563720e+00 3.398835e+11
4.801340e+00 3.032577e+11
5.051340e+00 2.445318e+11
5.314360e+00 1.986870e+11
5.591070e+00 1.634305e+11
5.882190e+00 1.354406e+11
6.188470e+00 1.140724e+11
6.510690e+00 9.616538e+10
6.849700e+00 8.411860e+10
7.206350e+00 7.300335e+10
7.581580e+00 6.361409e+10
7.976340e+00 5.551397e+10
8.391660e+00 4.781669e+10
8.828600e+00 4.033479e+10
9.288290e+00 2.629283e+10
9.771920e+00 1.563784e+10
1.028070e+01 1.335133e+10
1.081600e+01 8.633883e+09
1.137920e+01 6.323617e+09
1.197170e+01 4.017490e+09
1.259510e+01 2.615103e+09
1.325090e+01 1.441382e+09
1.394080e+01 1.078086e+09
1.466670e+01 7.507911e+08
1.543040e+01 4.657421e+08
1.623380e+01 2.984458e+08
1.707910e+01 1.982921e+08
1.796840e+01 1.116192e+08
1.890400e+01 7.393011e+07
1.988830e+01 2.606627e+07
2.092380e+01 1.582468e+07
2.201330e+01 6.980072e+06
2.315950e+01 3.192078e+06
2.436540e+01 1.617595e+06
2.563410e+01 1.130428e+06
2.696880e+01 2.513422e+05
2.837300e+01 1.405611e+05
2.985040e+01 4.455448e+04
3.140470e+01 7.574221e+03
3.303990e+01 3.888626e+03
3.476020e+01 1.466865e+03
3.657010e+01 4.455979e+02
3.847430e+01 1.647116e+02
4.047760e+01 1.126954e+02
4.258520e+01 2.734576e+01
4.480250e+01 2.913255e+00
4.713530e+01 1.137167e-01
4.958960e+01 3.716940e-02
5.217170e+01 1.189777e-02
5.488820e+01 3.955485e-03
5.774620e+01 1.151210e-03
6.075290e+01 1.357662e-05
6.391620e+01 1.803263e-06
6.724430e+01 1.210812e-06
7.074560e+01 1.716606e-08
7.442920e+01 8.983615e-10
7.830470e+01 6.892565e-11
8.238190e+01 5.303351e-12
8.667140e+01 9.750683e-13
9.118430e+01 8.079919e-13
9.593210e+01 6.839043e-14
1.009270e+02 5.436690e-16
1.061820e+02 3.352795e-18
1.117110e+02 1.419420e-18
1.175280e+02 5.399613e-20
1.236470e+02 8.098851e-24
1.300850e+02 8.311147e-26
1.368590e+02 1.807426e-27
1.439850e+02 1.238876e-27
1.514820e+02 6.951578e-32
1.593690e+02 1.414463e-34
1.676680e+02 8.652261e-37
1.763980e+02 1.854575e-39
1.855830e+02 4.057408e-42
1.952460e+02 1.733229e-42
2.054120e+02 2.663312e-48
2.161070e+02 1.535085e-51
2.273600e+02 6.131453e-55
2.391980e+02 1.236085e-56
2.516530e+02 2.004230e-58
2.647560e+02 4.519329e-66
2.785410e+02 1.501704e-66
2.930450e+02 5.714882e-71
3.083030e+02 1.551512e-79
3.243560e+02 3.429911e-80
3.412450e+02 4.650130e-84
3.590130e+02 3.823837e-90
3.777060e+02 3.031018e-100
3.973730e+02 6.201234e-106
4.180640e+02 2.781624e-106
4.398320e+02 8.722783e-113
4.627330e+02 1.892429e-125
4.868270e+02 3.184881e-133
5.121760e+02 4.119176e-140
5.388440e+02 2.517402e-140
5.669010e+02 9.970217e-149
5.964180e+02 1.121748e-161
6.274730e+02 8.731238e-175
6.601450e+02 5.396800e-175
6.945180e+02 8.829284e-185
7.306800e+02 4.468911e-195
7.687260e+02 2.158149e-206
8.087520e+02 2.588814e-217
8.508630e+02 4.932546e-242
8.951660e+02 3.001446e-254
9.417770e+02 2.491427e-254
9.908140e+02 4.481514e-269
1.042400e+03 4.200342e-283
1.096680e+03 0.000000e+00
