# # E_gamma (MeV)  Final State Radiation (MeV^-1 s^-1)
5.145440e-01 6.195196e+13
5.413360e-01 5.478607e+13
5.695230e-01 5.011564e+13
5.991770e-01 4.405532e+13
6.303750e-01 4.020367e+13
6.631980e-01 3.513953e+13
6.977300e-01 3.198048e+13
7.340600e-01 2.778015e+13
7.722810e-01 2.398061e+13
8.124930e-01 2.177651e+13
8.547980e-01 1.868172e+13
8.993070e-01 1.690583e+13
9.461320e-01 1.441654e+13
9.953960e-01 1.222180e+13
1.047230e+00 1.102522e+13
1.101750e+00 9.283982e+12
1.159120e+00 7.761960e+12
1.219470e+00 6.976073e+12
1.282970e+00 5.800426e+12
1.349770e+00 4.790803e+12
1.420050e+00 3.925478e+12
1.493990e+00 3.515376e+12
1.571780e+00 2.862967e+12
1.653620e+00 2.314909e+12
1.739730e+00 1.857738e+12
1.830310e+00 1.656274e+12
1.925610e+00 1.320789e+12
2.025880e+00 1.048537e+12
2.131360e+00 8.249570e+11
2.242340e+00 6.470799e+11
2.359100e+00 5.746835e+11
2.481930e+00 4.470520e+11
2.611160e+00 3.470383e+11
2.747120e+00 2.701456e+11
2.890160e+00 2.097671e+11
3.040650e+00 1.627277e+11
3.198970e+00 1.445627e+11
3.365530e+00 1.122875e+11
3.540770e+00 8.831187e+10
3.725140e+00 6.990437e+10
3.919100e+00 5.556020e+10
4.123160e+00 4.498861e+10
4.337850e+00 3.666742e+10
4.563720e+00 3.044102e+10
4.801340e+00 2.744402e+10
5.051340e+00 2.352625e+10
5.314360e+00 1.992202e+10
5.591070e+00 1.662879e+10
5.882190e+00 1.365865e+10
6.188470e+00 1.143140e+10
6.510690e+00 9.737189e+09
6.849700e+00 8.419526e+09
7.206350e+00 7.363154e+09
7.581580e+00 6.482796e+09
7.976340e+00 5.653646e+09
8.391660e+00 4.864434e+09
8.828600e+00 4.095025e+09
9.288290e+00 2.664809e+09
9.771920e+00 1.395706e+09
1.028070e+01 1.176884e+09
1.081600e+01 7.102114e+08
1.137920e+01 4.472719e+08
1.197170e+01 2.384248e+08
1.259510e+01 1.343293e+08
1.325090e+01 4.869299e+07
1.394080e+01 3.124942e+07
1.466670e+01 1.910301e+07
1.543040e+01 7.173489e+06
1.623380e+01 3.428552e+06
1.707910e+01 2.147893e+06
1.796840e+01 1.048999e+06
1.890400e+01 6.331087e+05
1.988830e+01 1.444945e+05
2.092380e+01 5.837382e+04
2.201330e+01 1.691068e+04
2.315950e+01 5.489659e+03
2.436540e+01 2.416317e+03
2.563410e+01 1.323637e+03
2.696880e+01 1.017292e+02
2.837300e+01 3.739477e+01
2.985040e+01 6.843173e+00
3.140470e+01 7.543558e-01
3.303990e+01 3.796241e-01
3.476020e+01 5.826829e-02
3.657010e+01 9.176348e-03
3.847430e+01 2.374665e-03
4.047760e+01 1.458412e-03
4.258520e+01 2.123145e-04
4.480250e+01 9.132927e-06
4.713530e+01 7.853644e-08
4.958960e+01 6.748271e-09
5.217170e+01 2.717931e-09
5.488820e+01 7.592426e-10
5.774620e+01 7.592829e-11
6.075290e+01 2.002462e-13
6.391620e+01 3.999800e-14
6.724430e+01 6.365531e-15
7.074560e+01 1.229040e-17
7.442920e+01 1.697159e-19
7.830470e+01 5.175945e-21
8.238190e+01 1.654874e-22
8.667140e+01 3.390110e-23
9.118430e+01 5.630841e-24
9.593210e+01 1.380691e-25
1.009270e+02 2.597772e-28
1.061820e+02 9.239032e-32
1.117110e+02 3.698747e-32
1.175280e+02 2.213845e-34
1.236470e+02 1.179175e-39
1.300850e+02 1.913526e-42
1.368590e+02 4.920697e-45
1.439850e+02 3.447791e-45
1.514820e+02 2.378480e-51
1.593690e+02 5.520614e-55
1.676680e+02 2.335936e-58
1.763980e+02 4.111774e-62
1.855830e+02 5.658038e-66
1.952460e+02 2.680450e-66
2.054120e+02 1.117885e-74
2.161070e+02 2.526977e-79
2.273600e+02 3.267856e-84
2.391980e+02 5.130696e-89
2.516530e+02 4.030487e-89
2.647560e+02 5.081804e-100
2.785410e+02 1.501160e-100
2.930450e+02 1.012951e-106
3.083030e+02 3.834676e-119
3.243560e+02 8.185222e-120
3.412450e+02 1.120140e-125
3.590130e+02 7.109850e-134
3.777060e+02 6.062023e-149
3.973730e+02 7.316941e-157
4.180640e+02 3.227604e-157
4.398320e+02 1.942200e-166
4.627330e+02 6.308096e-185
4.868270e+02 1.273952e-195
5.121760e+02 6.918169e-206
5.388440e+02 4.433146e-206
5.669010e+02 7.379712e-218
5.964180e+02 6.615837e-243
6.274730e+02 2.299638e-255
6.601450e+02 1.453238e-255
6.945180e+02 4.384930e-284
7.306800e+02 3.302655e-284
7.687260e+02 3.887975e-300
8.087520e+02 0.000000e+00
