# # E_gamma (MeV)  Final State Radiation (MeV^-1 s^-1)
5.145440e-01 1.640021e+19
5.413360e-01 1.557758e+19
5.695230e-01 1.479568e+19
5.991770e-01 1.405250e+19
6.303750e-01 1.334611e+19
6.631980e-01 1.267469e+19
6.977300e-01 1.203651e+19
7.340600e-01 1.142992e+19
7.722810e-01 1.085338e+19
8.124930e-01 1.030538e+19
8.547980e-01 9.784521e+18
8.993070e-01 9.289444e+18
9.461320e-01 8.818899e+18
9.953960e-01 8.371652e+18
1.047230e+00 7.946521e+18
1.101750e+00 7.542542e+18
1.159120e+00 7.158500e+18
1.219470e+00 6.793531e+18
1.282970e+00 6.446603e+18
1.349770e+00 6.116899e+18
1.420050e+00 5.803527e+18
1.493990e+00 5.505691e+18
1.571780e+00 5.222619e+18
1.653620e+00 4.953584e+18
1.739730e+00 4.697869e+18
1.830310e+00 4.454882e+18
1.925610e+00 4.223939e+18
2.025880e+00 4.004441e+18
2.131360e+00 3.795863e+18
2.242340e+00 3.597630e+18
2.359100e+00 3.409254e+18
2.481930e+00 3.230247e+18
2.611160e+00 3.060135e+18
2.747120e+00 2.898484e+18
2.890160e+00 2.744878e+18
3.040650e+00 2.598920e+18
3.198970e+00 2.460258e+18
3.365530e+00 2.328498e+18
3.540770e+00 2.203309e+18
3.725140e+00 2.084369e+18
3.919100e+00 1.971380e+18
4.123160e+00 1.864045e+18
4.337850e+00 1.762083e+18
4.563720e+00 1.665233e+18
4.801340e+00 1.573290e+18
5.051340e+00 1.485934e+18
5.314360e+00 1.402977e+18
5.591070e+00 1.324206e+18
5.882190e+00 1.249413e+18
6.188470e+00 1.178406e+18
6.510690e+00 1.111002e+18
6.849700e+00 1.047022e+18
7.206350e+00 9.863031e+17
7.581580e+00 9.286837e+17
7.976340e+00 8.740157e+17
8.391660e+00 8.221542e+17
8.828600e+00 7.729642e+17
9.288290e+00 7.263155e+17
9.771920e+00 6.820844e+17
1.028070e+01 6.403444e+17
1.081600e+01 6.006283e+17
1.137920e+01 5.629959e+17
1.197170e+01 5.273495e+17
1.259510e+01 4.935885e+17
1.325090e+01 4.616268e+17
1.394080e+01 4.313753e+17
1.466670e+01 4.027452e+17
1.543040e+01 3.756597e+17
1.623380e+01 3.500443e+17
1.707910e+01 3.258217e+17
1.796840e+01 3.029240e+17
1.890400e+01 2.812834e+17
1.988830e+01 2.608353e+17
2.092380e+01 2.415178e+17
2.201330e+01 2.232684e+17
2.315950e+01 2.060310e+17
2.436540e+01 1.897490e+17
2.563410e+01 1.743683e+17
2.696880e+01 1.598376e+17
2.837300e+01 1.461059e+17
2.985040e+01 1.331245e+17
3.140470e+01 1.208490e+17
3.303990e+01 1.092370e+17
3.476020e+01 9.824987e+16
3.657010e+01 8.785399e+16
3.847430e+01 7.802281e+16
4.047760e+01 6.873790e+16
4.258520e+01 5.999378e+16
4.480250e+01 5.179481e+16
4.713530e+01 4.415855e+16
4.958960e+01 3.711962e+16
5.217170e+01 3.071445e+16
5.488820e+01 2.498634e+16
5.774620e+01 1.996713e+16
6.075290e+01 1.566904e+16
6.391620e+01 1.208087e+16
6.724430e+01 9.161047e+15
7.074560e+01 6.845886e+15
7.442920e+01 5.050529e+15
7.830470e+01 3.689522e+15
8.238190e+01 2.673812e+15
8.667140e+01 1.924312e+15
9.118430e+01 1.376367e+15
9.593210e+01 9.730040e+14
1.009270e+02 6.759753e+14
1.061820e+02 4.573502e+14
1.117110e+02 2.981380e+14
1.175280e+02 1.865360e+14
1.236470e+02 1.121351e+14
1.300850e+02 6.519477e+13
1.368590e+02 3.727603e+13
1.439850e+02 2.095591e+13
1.514820e+02 1.165199e+13
1.593690e+02 6.349429e+12
1.676680e+02 3.281638e+12
1.763980e+02 1.596395e+12
1.855830e+02 7.333159e+11
1.952460e+02 3.236487e+11
2.054120e+02 1.432608e+11
2.161070e+02 6.079565e+10
2.273600e+02 2.413937e+10
2.391980e+02 8.949943e+09
2.516530e+02 3.077066e+09
2.647560e+02 1.058654e+09
2.785410e+02 3.432612e+08
2.930450e+02 9.798315e+07
3.083030e+02 2.777611e+07
3.243560e+02 7.242091e+06
3.412450e+02 1.740646e+06
3.590130e+02 3.953031e+05
3.777060e+02 7.921749e+04
3.973730e+02 1.565729e+04
4.180640e+02 2.657827e+03
4.398320e+02 3.960978e+02
4.627330e+02 6.250431e+01
4.868270e+02 7.633358e+00
5.121760e+02 8.498581e-01
5.388440e+02 9.616160e-02
5.669010e+02 7.837413e-03
5.964180e+02 6.958438e-04
6.274730e+02 4.867294e-05
6.601450e+02 2.372444e-06
6.945180e+02 1.675400e-07
7.306800e+02 7.319736e-09
7.687260e+02 3.081582e-10
8.087520e+02 9.628971e-12
8.508630e+02 2.660501e-13
8.951660e+02 7.122596e-15
9.417770e+02 1.428089e-16
9.908140e+02 2.038407e-18
1.042400e+03 2.838906e-20
1.096680e+03 3.153058e-22
1.153780e+03 2.250087e-24
1.213860e+03 1.581771e-26
1.277060e+03 7.724843e-29
1.343560e+03 2.637010e-31
1.413520e+03 8.363105e-34
1.487120e+03 1.465683e-36
1.564550e+03 2.527401e-39
1.646010e+03 2.279619e-42
1.731720e+03 1.958231e-45
1.821890e+03 8.535438e-49
1.916750e+03 3.250460e-52
2.016550e+03 7.076430e-56
2.121550e+03 9.441961e-60
2.232020e+03 9.817326e-64
2.348230e+03 5.395554e-68
2.470500e+03 1.643233e-72
2.599140e+03 3.277929e-77
2.734470e+03 3.958651e-82
2.876850e+03 2.576348e-87
3.026650e+03 8.675684e-93
3.184240e+03 1.495222e-98
3.350040e+03 1.287420e-104
3.524470e+03 5.276683e-111
3.707990e+03 9.650128e-118
3.901060e+03 7.753586e-125
4.104180e+03 3.015711e-132
4.317880e+03 5.088700e-140
4.542710e+03 2.628765e-148
4.779240e+03 6.594350e-157
5.028090e+03 4.595948e-166
5.289890e+03 1.400974e-175
5.565330e+03 1.082698e-185
5.855110e+03 2.522249e-196
6.159980e+03 1.783122e-207
6.480720e+03 3.295558e-219
6.818160e+03 1.466076e-231
7.173170e+03 1.580469e-244
7.546670e+03 3.793969e-258
7.939620e+03 1.370774e-272
8.353020e+03 1.190632e-287
8.787950e+03 1.304903e-303
9.245530e+03 0.000000e+00
