# E_gamma(MeV)   IFA_primary_masked(MeV^-1 s^-1)
5.145440e-01 5.718809e+19
5.413360e-01 8.089135e+19
5.695230e-01 1.054426e+20
5.991770e-01 1.148068e+20
6.303750e-01 1.200965e+20
6.631980e-01 1.224785e+20
6.977300e-01 1.227803e+20
7.340600e-01 1.215900e+20
7.722810e-01 1.193364e+20
8.124930e-01 1.163336e+20
8.547980e-01 1.128140e+20
8.993070e-01 1.089509e+20
9.461320e-01 1.048738e+20
9.953960e-01 1.006813e+20
1.047230e+00 9.644764e+19
1.101750e+00 9.222922e+19
1.159120e+00 8.806827e+19
1.219470e+00 8.399571e+19
1.282970e+00 8.003255e+19
1.349770e+00 7.619381e+19
1.420050e+00 7.248904e+19
1.493990e+00 6.892453e+19
1.571780e+00 6.550348e+19
1.653620e+00 6.222712e+19
1.739730e+00 5.909474e+19
1.830310e+00 5.610451e+19
1.925610e+00 5.325360e+19
2.025880e+00 5.053832e+19
2.131360e+00 4.795450e+19
2.242340e+00 4.549781e+19
2.359100e+00 4.316340e+19
2.481930e+00 4.094630e+19
2.611160e+00 3.884161e+19
2.747120e+00 3.684441e+19
2.890160e+00 3.494969e+19
3.040650e+00 3.315285e+19
3.198970e+00 3.144890e+19
3.365530e+00 2.983340e+19
3.540770e+00 2.830197e+19
3.725140e+00 2.685035e+19
3.919100e+00 2.547431e+19
4.123160e+00 2.417023e+19
4.337850e+00 2.293425e+19
4.563720e+00 2.176281e+19
4.801340e+00 2.065247e+19
5.051340e+00 1.960000e+19
5.314360e+00 1.860231e+19
5.591070e+00 1.765640e+19
5.882190e+00 1.675952e+19
6.188470e+00 1.590904e+19
6.510690e+00 1.510246e+19
6.849700e+00 1.433747e+19
7.206350e+00 1.361171e+19
7.581580e+00 1.292309e+19
7.976340e+00 1.226959e+19
8.391660e+00 1.164931e+19
8.828600e+00 1.106050e+19
9.288290e+00 1.050130e+19
9.771920e+00 9.970101e+18
1.028070e+01 9.465614e+18
1.081600e+01 8.986121e+18
1.137920e+01 8.530164e+18
1.197170e+01 8.096837e+18
1.259510e+01 7.684754e+18
1.325090e+01 7.292487e+18
1.394080e+01 6.919297e+18
1.466670e+01 6.563820e+18
1.543040e+01 6.225221e+18
1.623380e+01 5.902366e+18
1.707910e+01 5.594576e+18
1.796840e+01 5.300906e+18
1.890400e+01 5.020745e+18
1.988830e+01 4.753092e+18
2.092380e+01 4.497547e+18
2.201330e+01 4.252990e+18
2.315950e+01 4.018979e+18
2.436540e+01 3.794870e+18
2.563410e+01 3.580061e+18
2.696880e+01 3.373915e+18
2.837300e+01 3.176114e+18
2.985040e+01 2.985930e+18
3.140470e+01 2.802970e+18
3.303990e+01 2.626839e+18
3.476020e+01 2.457053e+18
3.657010e+01 2.293178e+18
3.847430e+01 2.134877e+18
4.047760e+01 1.981776e+18
4.258520e+01 1.833529e+18
4.480250e+01 1.689936e+18
4.713530e+01 1.550856e+18
4.958960e+01 1.416086e+18
5.217170e+01 1.285621e+18
5.488820e+01 1.159475e+18
5.774620e+01 1.037816e+18
6.075290e+01 9.209057e+17
6.391620e+01 8.091801e+17
6.724430e+01 7.031738e+17
7.074560e+01 6.035682e+17
7.442920e+01 5.110987e+17
7.830470e+01 4.264852e+17
8.238190e+01 3.503210e+17
8.667140e+01 2.831209e+17
9.118430e+01 2.250865e+17
9.593210e+01 1.760515e+17
1.009270e+02 1.355729e+17
1.061820e+02 1.029660e+17
1.117110e+02 7.721860e+16
1.175280e+02 5.726460e+16
1.236470e+02 4.206377e+16
1.300850e+02 3.062881e+16
1.368590e+02 2.210499e+16
1.439850e+02 1.577639e+16
1.514820e+02 1.109395e+16
1.593690e+02 7.649423e+15
1.676680e+02 5.140951e+15
1.763980e+02 3.350058e+15
1.855830e+02 2.113973e+15
1.952460e+02 1.278814e+15
2.054120e+02 7.611460e+14
2.161070e+02 4.339367e+14
2.273600e+02 2.435843e+14
2.391980e+02 1.296064e+14
2.516530e+02 7.741166e+13
2.647560e+02 3.559991e+13
2.785410e+02 2.053330e+13
2.930450e+02 8.702395e+12
3.083030e+02 4.698281e+12
3.243560e+02 1.822368e+12
3.412450e+02 7.596904e+11
3.590130e+02 3.511215e+11
3.777060e+02 1.290486e+11
3.973730e+02 5.279803e+10
4.180640e+02 1.807998e+10
4.398320e+02 6.613884e+09
4.627330e+02 2.297361e+09
4.868270e+02 7.040271e+08
5.121760e+02 1.977209e+08
5.388440e+02 5.293644e+07
5.669010e+02 1.267795e+07
5.964180e+02 2.944026e+06
6.274730e+02 6.228656e+05
6.601450e+02 1.175548e+05
6.945180e+02 1.277040e+04
7.306800e+02 2.790141e+03
7.687260e+02 4.023252e+02
8.087520e+02 6.132063e+01
8.508630e+02 7.213582e+00
8.951660e+02 9.570965e-01
9.417770e+02 8.669078e-02
9.908140e+02 2.682484e-02
1.042400e+03 0.000000e+00
1.096680e+03 0.000000e+00
1.153780e+03 0.000000e+00
1.213860e+03 0.000000e+00
1.277060e+03 0.000000e+00
1.343560e+03 0.000000e+00
1.413520e+03 0.000000e+00
1.487120e+03 0.000000e+00
1.564550e+03 0.000000e+00
1.646010e+03 0.000000e+00
1.731720e+03 0.000000e+00
1.821890e+03 0.000000e+00
1.916750e+03 0.000000e+00
2.016550e+03 0.000000e+00
2.121550e+03 0.000000e+00
2.232020e+03 0.000000e+00
2.348230e+03 0.000000e+00
2.470500e+03 0.000000e+00
2.599140e+03 0.000000e+00
2.734470e+03 0.000000e+00
2.876850e+03 0.000000e+00
3.026650e+03 0.000000e+00
3.184240e+03 0.000000e+00
3.350040e+03 0.000000e+00
3.524470e+03 0.000000e+00
3.707990e+03 0.000000e+00
3.901060e+03 0.000000e+00
4.104180e+03 0.000000e+00
4.317880e+03 0.000000e+00
4.542710e+03 0.000000e+00
4.779240e+03 0.000000e+00
5.028090e+03 0.000000e+00
5.289890e+03 0.000000e+00
5.565330e+03 0.000000e+00
5.855110e+03 0.000000e+00
6.159980e+03 0.000000e+00
6.480720e+03 0.000000e+00
6.818160e+03 0.000000e+00
7.173170e+03 0.000000e+00
7.546670e+03 0.000000e+00
7.939620e+03 0.000000e+00
8.353020e+03 0.000000e+00
8.787950e+03 0.000000e+00
9.245530e+03 0.000000e+00
9.726930e+03 0.000000e+00
1.023340e+04 0.000000e+00
1.076620e+04 0.000000e+00
1.132680e+04 0.000000e+00
1.191660e+04 0.000000e+00
1.253710e+04 0.000000e+00
1.318990e+04 0.000000e+00
1.387660e+04 0.000000e+00
