# # E_gamma (MeV)  Final State Radiation (MeV^-1 s^-1)
5.145440e-01 6.499439e+12
5.413360e-01 5.656690e+12
5.695230e-01 5.153684e+12
5.991770e-01 4.454464e+12
6.303750e-01 4.048924e+12
6.631980e-01 3.477500e+12
6.977300e-01 3.152553e+12
7.340600e-01 2.689007e+12
7.722810e-01 2.279387e+12
8.124930e-01 2.063502e+12
8.547980e-01 1.738242e+12
8.993070e-01 1.568517e+12
9.461320e-01 1.315180e+12
9.953960e-01 1.097644e+12
1.047230e+00 9.883073e+11
1.101750e+00 8.199444e+11
1.159120e+00 6.746088e+11
1.219470e+00 6.061070e+11
1.282970e+00 4.989091e+11
1.349770e+00 4.104724e+11
1.420050e+00 3.331272e+11
1.493990e+00 2.991319e+11
1.571780e+00 2.449373e+11
1.653620e+00 1.997819e+11
1.739730e+00 1.607405e+11
1.830310e+00 1.443143e+11
1.925610e+00 1.176140e+11
2.025880e+00 9.746330e+10
2.131360e+00 8.079237e+10
2.242340e+00 6.745382e+10
2.359100e+00 6.048408e+10
2.481930e+00 5.123821e+10
2.611160e+00 4.265145e+10
2.747120e+00 3.372345e+10
2.890160e+00 2.559158e+10
3.040650e+00 2.044017e+10
3.198970e+00 1.811334e+10
3.365530e+00 1.490927e+10
3.540770e+00 1.096282e+10
3.725140e+00 8.034269e+09
3.919100e+00 5.882039e+09
4.123160e+00 3.957220e+09
4.337850e+00 2.897416e+09
4.563720e+00 2.288961e+09
4.801340e+00 2.038313e+09
5.051340e+00 1.692266e+09
5.314360e+00 1.373999e+09
5.591070e+00 1.082687e+09
5.882190e+00 8.181904e+08
6.188470e+00 5.817775e+08
6.510690e+00 4.140078e+08
6.849700e+00 2.965879e+08
7.206350e+00 2.154563e+08
7.581580e+00 1.601049e+08
7.976340e+00 1.299914e+08
8.391660e+00 1.101152e+08
8.828600e+00 9.349150e+07
9.288290e+00 4.446422e+07
9.771920e+00 1.428593e+07
1.028070e+01 1.171257e+07
1.081600e+01 5.451727e+06
1.137920e+01 2.474595e+06
1.197170e+01 1.150556e+06
1.259510e+01 5.916222e+05
1.325090e+01 1.208614e+05
1.394080e+01 5.104257e+04
1.466670e+01 2.762882e+04
1.543040e+01 1.867665e+03
1.623380e+01 1.384053e+03
1.707910e+01 5.954076e+02
1.796840e+01 2.317245e+02
1.890400e+01 1.311483e+02
1.988830e+01 1.207376e+01
2.092380e+01 3.778335e+00
2.201330e+01 3.791531e-01
2.315950e+01 5.270815e-02
2.436540e+01 2.202928e-02
2.563410e+01 9.145670e-03
2.696880e+01 1.556351e-04
2.837300e+01 3.444213e-05
2.985040e+01 4.339370e-06
3.140470e+01 1.380371e-07
3.303990e+01 6.453318e-08
3.476020e+01 1.993845e-09
3.657010e+01 7.819419e-11
3.847430e+01 1.185715e-11
4.047760e+01 7.235883e-12
4.258520e+01 3.608608e-13
4.480250e+01 7.658270e-15
4.713530e+01 7.140657e-18
4.958960e+01 5.445524e-20
5.217170e+01 1.591312e-20
5.488820e+01 4.203754e-21
5.774620e+01 1.555787e-22
6.075290e+01 1.945001e-26
6.391620e+01 1.929400e-28
6.724430e+01 1.318018e-28
7.074560e+01 1.211699e-32
7.442920e+01 2.051223e-35
7.830470e+01 4.191711e-38
8.238190e+01 3.248616e-40
8.667140e+01 2.574333e-41
9.118430e+01 1.685703e-42
9.593210e+01 4.217560e-45
1.009270e+02 7.682217e-49
1.061820e+02 1.649010e-54
1.117110e+02 6.848557e-55
1.175280e+02 2.798998e-58
1.236470e+02 3.766598e-66
1.300850e+02 2.385343e-70
1.368590e+02 2.734092e-74
1.439850e+02 1.878323e-74
1.514820e+02 9.412359e-84
1.593690e+02 4.013090e-89
1.676680e+02 3.553978e-94
1.763980e+02 7.194505e-100
1.855830e+02 1.102700e-105
1.952460e+02 5.107508e-106
2.054120e+02 1.171088e-118
2.161070e+02 1.573454e-125
2.273600e+02 9.258765e-133
2.391980e+02 3.894536e-140
2.516530e+02 2.942614e-140
2.647560e+02 1.309100e-156
2.785410e+02 4.093535e-157
2.930450e+02 2.665295e-166
3.083030e+02 4.613537e-185
3.243560e+02 9.927596e-186
3.412450e+02 4.315860e-195
3.590130e+02 6.484872e-207
3.777060e+02 1.818607e-229
3.973730e+02 6.250189e-242
4.180640e+02 2.824999e-242
4.398320e+02 7.629022e-256
4.627330e+02 6.308096e-284
4.868270e+02 6.369762e-300
5.121760e+02 0.000000e+00
