# # E_gamma (MeV)  Final State Radiation (MeV^-1 s^-1)
5.145440e-01 1.437935e+19
5.413360e-01 1.365701e+19
5.695230e-01 1.297044e+19
5.991770e-01 1.231787e+19
6.303750e-01 1.169761e+19
6.631980e-01 1.110805e+19
6.977300e-01 1.054768e+19
7.340600e-01 1.001506e+19
7.722810e-01 9.508822e+18
8.124930e-01 9.027645e+18
8.547980e-01 8.570305e+18
8.993070e-01 8.135606e+18
9.461320e-01 7.722450e+18
9.953960e-01 7.329753e+18
1.047230e+00 6.956480e+18
1.101750e+00 6.601781e+18
1.159120e+00 6.264591e+18
1.219470e+00 5.944153e+18
1.282970e+00 5.639557e+18
1.349770e+00 5.350088e+18
1.420050e+00 5.074964e+18
1.493990e+00 4.813485e+18
1.571780e+00 4.564971e+18
1.653620e+00 4.328787e+18
1.739730e+00 4.104301e+18
1.830310e+00 3.890997e+18
1.925610e+00 3.688270e+18
2.025880e+00 3.495597e+18
2.131360e+00 3.312515e+18
2.242340e+00 3.138521e+18
2.359100e+00 2.973189e+18
2.481930e+00 2.816085e+18
2.611160e+00 2.666795e+18
2.747120e+00 2.524938e+18
2.890160e+00 2.390151e+18
3.040650e+00 2.262083e+18
3.198970e+00 2.140432e+18
3.365530e+00 2.024842e+18
3.540770e+00 1.915026e+18
3.725140e+00 1.810702e+18
3.919100e+00 1.711609e+18
4.123160e+00 1.617485e+18
4.337850e+00 1.528085e+18
4.563720e+00 1.443179e+18
4.801340e+00 1.362600e+18
5.051340e+00 1.286044e+18
5.314360e+00 1.213355e+18
5.591070e+00 1.144348e+18
5.882190e+00 1.078841e+18
6.188470e+00 1.016664e+18
6.510690e+00 9.576559e+17
6.849700e+00 9.016604e+17
7.206350e+00 8.485345e+17
7.581580e+00 7.981359e+17
7.976340e+00 7.503346e+17
8.391660e+00 7.050031e+17
8.828600e+00 6.620225e+17
9.288290e+00 6.212785e+17
9.771920e+00 5.826619e+17
1.028070e+01 5.462984e+17
1.081600e+01 5.116622e+17
1.137920e+01 4.788599e+17
1.197170e+01 4.478050e+17
1.259510e+01 4.184087e+17
1.325090e+01 3.905944e+17
1.394080e+01 3.642834e+17
1.466670e+01 3.393967e+17
1.543040e+01 3.158658e+17
1.623380e+01 2.936243e+17
1.707910e+01 2.726029e+17
1.796840e+01 2.527408e+17
1.890400e+01 2.339771e+17
1.988830e+01 2.162533e+17
2.092380e+01 1.995137e+17
2.201330e+01 1.837016e+17
2.315950e+01 1.687662e+17
2.436540e+01 1.546561e+17
2.563410e+01 1.413227e+17
2.696880e+01 1.287202e+17
2.837300e+01 1.168036e+17
2.985040e+01 1.055315e+17
3.140470e+01 9.486752e+16
3.303990e+01 8.477944e+16
3.476020e+01 7.524256e+16
3.657010e+01 6.623883e+16
3.847430e+01 5.776251e+16
4.047760e+01 4.982056e+16
4.258520e+01 4.242939e+16
4.480250e+01 3.562442e+16
4.713530e+01 2.944137e+16
4.958960e+01 2.391873e+16
5.217170e+01 1.908921e+16
5.488820e+01 1.496149e+16
5.774620e+01 1.152200e+16
6.075290e+01 8.728297e+15
6.391620e+01 6.517559e+15
6.724430e+01 4.805512e+15
7.074560e+01 3.508333e+15
7.442920e+01 2.542611e+15
7.830470e+01 1.829317e+15
8.238190e+01 1.307153e+15
8.667140e+01 9.234598e+14
9.118430e+01 6.403673e+14
9.593210e+01 4.323401e+14
1.009270e+02 2.810525e+14
1.061820e+02 1.752517e+14
1.117110e+02 1.051870e+14
1.175280e+02 6.105465e+13
1.236470e+02 3.480274e+13
1.300850e+02 1.958005e+13
1.368590e+02 1.085804e+13
1.439850e+02 5.909455e+12
1.514820e+02 3.043006e+12
1.593690e+02 1.469131e+12
1.676680e+02 6.763496e+11
1.763980e+02 2.985166e+11
1.855830e+02 1.310187e+11
1.952460e+02 5.563007e+10
2.054120e+02 2.182944e+10
2.161070e+02 8.091774e+09
2.273600e+02 2.790017e+09
2.391980e+02 9.438660e+08
2.516530e+02 3.093715e+08
2.647560e+02 8.828492e+07
2.785410e+02 2.437438e+07
2.930450e+02 6.434804e+06
3.083030e+02 1.496586e+06
3.243560e+02 3.442653e+05
3.412450e+02 6.979029e+04
3.590130e+02 1.294064e+04
3.777060e+02 2.313878e+03
3.973730e+02 3.491955e+02
4.180640e+02 5.128688e+01
4.398320e+02 6.556138e+00
4.627330e+02 6.609123e-01
4.868270e+02 7.965110e-02
5.121760e+02 6.722117e-03
5.388440e+02 5.076846e-04
5.669010e+02 4.052434e-05
5.964180e+02 2.056580e-06
6.274730e+02 1.249924e-07
6.601450e+02 5.707983e-09
6.945180e+02 2.349193e-10
7.306800e+02 7.212356e-12
7.687260e+02 1.991220e-13
8.087520e+02 5.276259e-15
8.508630e+02 1.025334e-16
8.951660e+02 1.446645e-18
9.417770e+02 2.013209e-20
9.908140e+02 2.156025e-22
1.042400e+03 1.515263e-24
1.096680e+03 1.062390e-26
1.153780e+03 4.948511e-29
1.213860e+03 1.695880e-31
1.277060e+03 5.170350e-34
1.343560e+03 8.917832e-37
1.413520e+03 1.497744e-39
1.487120e+03 1.315390e-42
1.564550e+03 1.094325e-45
1.646010e+03 4.707304e-49
1.731720e+03 1.684075e-52
1.821890e+03 3.703488e-56
1.916750e+03 4.636272e-60
2.016550e+03 4.596649e-64
2.121550e+03 2.534383e-68
2.232020e+03 7.399711e-73
2.348230e+03 1.367909e-77
2.470500e+03 1.556246e-82
2.599140e+03 9.736348e-88
2.734470e+03 3.159277e-93
2.876850e+03 5.196171e-99
3.026650e+03 4.210737e-105
3.184240e+03 1.603935e-111
3.350040e+03 2.740727e-118
3.524470e+03 2.147640e-125
3.707990e+03 8.229937e-133
3.901060e+03 1.210169e-140
4.104180e+03 5.870683e-149
4.317880e+03 1.411130e-157
4.542710e+03 8.790498e-167
4.779240e+03 2.398604e-176
5.028090e+03 1.862200e-186
5.289890e+03 3.874867e-197
5.565330e+03 2.378151e-208
5.855110e+03 3.940946e-220
6.159980e+03 1.639686e-232
6.480720e+03 1.645592e-245
6.818160e+03 3.089543e-259
7.173170e+03 1.046287e-273
7.546670e+03 7.431242e-289
7.939620e+03 8.053831e-305
8.353020e+03 0.000000e+00
