# E_gamma(MeV)   IFA_primary_masked(MeV^-1 s^-1)
5.145440e-01 4.432655e+20
5.413360e-01 5.903291e+20
5.695230e-01 7.347898e+20
5.991770e-01 7.295352e+20
6.303750e-01 7.181302e+20
6.631980e-01 7.021987e+20
6.977300e-01 6.830663e+20
7.340600e-01 6.616975e+20
7.722810e-01 6.388365e+20
8.124930e-01 6.150628e+20
8.547980e-01 5.908179e+20
8.993070e-01 5.664424e+20
9.461320e-01 5.422010e+20
9.953960e-01 5.182964e+20
1.047230e+00 4.948800e+20
1.101750e+00 4.720653e+20
1.159120e+00 4.499354e+20
1.219470e+00 4.285447e+20
1.282970e+00 4.079309e+20
1.349770e+00 3.881166e+20
1.420050e+00 3.691101e+20
1.493990e+00 3.509098e+20
1.571780e+00 3.335102e+20
1.653620e+00 3.168965e+20
1.739730e+00 3.010501e+20
1.830310e+00 2.859495e+20
1.925610e+00 2.715723e+20
2.025880e+00 2.578923e+20
2.131360e+00 2.448817e+20
2.242340e+00 2.325151e+20
2.359100e+00 2.207656e+20
2.481930e+00 2.096051e+20
2.611160e+00 1.990083e+20
2.747120e+00 1.889501e+20
2.890160e+00 1.794043e+20
3.040650e+00 1.703465e+20
3.198970e+00 1.617527e+20
3.365530e+00 1.536001e+20
3.540770e+00 1.458666e+20
3.725140e+00 1.385311e+20
3.919100e+00 1.315733e+20
4.123160e+00 1.249740e+20
4.337850e+00 1.187150e+20
4.563720e+00 1.127785e+20
4.801340e+00 1.071478e+20
5.051340e+00 1.018070e+20
5.314360e+00 9.674097e+19
5.591070e+00 9.193524e+19
5.882190e+00 8.737625e+19
6.188470e+00 8.305107e+19
6.510690e+00 7.894739e+19
6.849700e+00 7.505355e+19
7.206350e+00 7.135856e+19
7.581580e+00 6.785192e+19
7.976340e+00 6.452374e+19
8.391660e+00 6.136461e+19
8.828600e+00 5.836568e+19
9.288290e+00 5.551853e+19
9.771920e+00 5.281515e+19
1.028070e+01 5.024799e+19
1.081600e+01 4.780993e+19
1.137920e+01 4.549419e+19
1.197170e+01 4.329437e+19
1.259510e+01 4.120447e+19
1.325090e+01 3.921875e+19
1.394080e+01 3.733180e+19
1.466670e+01 3.553842e+19
1.543040e+01 3.383376e+19
1.623380e+01 3.221318e+19
1.707910e+01 3.067239e+19
1.796840e+01 2.920721e+19
1.890400e+01 2.781381e+19
1.988830e+01 2.648845e+19
2.092380e+01 2.522769e+19
2.201330e+01 2.402806e+19
2.315950e+01 2.288648e+19
2.436540e+01 2.180000e+19
2.563410e+01 2.076572e+19
2.696880e+01 1.978102e+19
2.837300e+01 1.884347e+19
2.985040e+01 1.795054e+19
3.140470e+01 1.709997e+19
3.303990e+01 1.628967e+19
3.476020e+01 1.551746e+19
3.657010e+01 1.478144e+19
3.847430e+01 1.407983e+19
4.047760e+01 1.341079e+19
4.258520e+01 1.277273e+19
4.480250e+01 1.216397e+19
4.713530e+01 1.158308e+19
4.958960e+01 1.102856e+19
5.217170e+01 1.049911e+19
5.488820e+01 9.993378e+18
5.774620e+01 9.510191e+18
6.075290e+01 9.048302e+18
6.391620e+01 8.606634e+18
6.724430e+01 8.184101e+18
7.074560e+01 7.779670e+18
7.442920e+01 7.392380e+18
7.830470e+01 7.021305e+18
8.238190e+01 6.665540e+18
8.667140e+01 6.324228e+18
9.118430e+01 5.996546e+18
9.593210e+01 5.681705e+18
1.009270e+02 5.378952e+18
1.061820e+02 5.087570e+18
1.117110e+02 4.806882e+18
1.175280e+02 4.536220e+18
1.236470e+02 4.274948e+18
1.300850e+02 4.022463e+18
1.368590e+02 3.778187e+18
1.439850e+02 3.541560e+18
1.514820e+02 3.312064e+18
1.593690e+02 3.089252e+18
1.676680e+02 2.872685e+18
1.763980e+02 2.661941e+18
1.855830e+02 2.456734e+18
1.952460e+02 2.256850e+18
2.054120e+02 2.062119e+18
2.161070e+02 1.872536e+18
2.273600e+02 1.688309e+18
2.391980e+02 1.509765e+18
2.516530e+02 1.337473e+18
2.647560e+02 1.172264e+18
2.785410e+02 1.015191e+18
2.930450e+02 8.674856e+17
3.083030e+02 7.305137e+17
3.243560e+02 6.055292e+17
3.412450e+02 4.937213e+17
3.590130e+02 3.957672e+17
3.777060e+02 3.119104e+17
3.973730e+02 2.417973e+17
4.180640e+02 1.846100e+17
4.398320e+02 1.389667e+17
4.627330e+02 1.033483e+17
4.868270e+02 7.606724e+16
5.121760e+02 5.548526e+16
5.388440e+02 4.013465e+16
5.669010e+02 2.875422e+16
5.964180e+02 2.034289e+16
6.274730e+02 1.414493e+16
6.601450e+02 9.615646e+15
6.945180e+02 6.350553e+15
7.306800e+02 4.059889e+15
7.687260e+02 2.503423e+15
8.087520e+02 1.497489e+15
8.508630e+02 8.594512e+14
8.951660e+02 4.845007e+14
9.417770e+02 2.624024e+14
9.908140e+02 1.418447e+14
1.042400e+03 7.062632e+13
1.096680e+03 4.181391e+13
1.153780e+03 1.801775e+13
1.213860e+03 1.002668e+13
1.277060e+03 3.838040e+12
1.343560e+03 1.622173e+12
1.413520e+03 7.921756e+11
1.487120e+03 2.877583e+11
1.564550e+03 1.219582e+11
1.646010e+03 4.222485e+10
1.731720e+03 1.574412e+10
1.821890e+03 5.560102e+09
1.916750e+03 1.790973e+09
2.016550e+03 5.135757e+08
2.121550e+03 1.339757e+08
2.232020e+03 3.428212e+07
2.348230e+03 7.779269e+06
2.470500e+03 1.692301e+06
2.599140e+03 3.499845e+05
2.734470e+03 3.617576e+04
2.876850e+03 1.100571e+04
3.026650e+03 3.187333e+03
3.184240e+03 1.228290e+03
3.350040e+03 0.000000e+00
3.524470e+03 0.000000e+00
3.707990e+03 0.000000e+00
3.901060e+03 0.000000e+00
4.104180e+03 0.000000e+00
4.317880e+03 0.000000e+00
4.542710e+03 0.000000e+00
4.779240e+03 0.000000e+00
5.028090e+03 0.000000e+00
5.289890e+03 0.000000e+00
5.565330e+03 0.000000e+00
5.855110e+03 0.000000e+00
6.159980e+03 0.000000e+00
6.480720e+03 0.000000e+00
6.818160e+03 0.000000e+00
7.173170e+03 0.000000e+00
7.546670e+03 0.000000e+00
7.939620e+03 0.000000e+00
8.353020e+03 0.000000e+00
8.787950e+03 0.000000e+00
9.245530e+03 0.000000e+00
9.726930e+03 0.000000e+00
1.023340e+04 0.000000e+00
1.076620e+04 0.000000e+00
1.132680e+04 0.000000e+00
1.191660e+04 0.000000e+00
1.253710e+04 0.000000e+00
1.318990e+04 0.000000e+00
1.387660e+04 0.000000e+00
1.459920e+04 0.000000e+00
1.535930e+04 0.000000e+00
1.615910e+04 0.000000e+00
1.700050e+04 0.000000e+00
1.788570e+04 0.000000e+00
1.881690e+04 0.000000e+00
1.979670e+04 0.000000e+00
2.082750e+04 0.000000e+00
2.191200e+04 0.000000e+00
2.305290e+04 0.000000e+00
2.425320e+04 0.000000e+00
2.551610e+04 0.000000e+00
2.684460e+04 0.000000e+00
2.824240e+04 0.000000e+00
2.971300e+04 0.000000e+00
3.126010e+04 0.000000e+00
3.288770e+04 0.000000e+00
3.460020e+04 0.000000e+00
3.640170e+04 0.000000e+00
3.829710e+04 0.000000e+00
4.029120e+04 0.000000e+00
4.238910e+04 0.000000e+00
4.459630e+04 0.000000e+00
4.691830e+04 0.000000e+00
4.936130e+04 0.000000e+00
5.193150e+04 0.000000e+00
5.463550e+04 0.000000e+00
