# E_gamma(MeV)   IFA_primary_masked(MeV^-1 s^-1)
5.145440e-01 2.547375e+13
5.413360e-01 7.063020e+14
5.695230e-01 4.319303e+15
5.991770e-01 1.431445e+16
6.303750e-01 3.264703e+16
6.631980e-01 5.876319e+16
6.977300e-01 9.013706e+16
7.340600e-01 1.222658e+17
7.722810e-01 1.496366e+17
8.124930e-01 1.685689e+17
8.547980e-01 1.782820e+17
8.993070e-01 1.797837e+17
9.461320e-01 1.747365e+17
9.953960e-01 1.648977e+17
1.047230e+00 1.518761e+17
1.101750e+00 1.370148e+17
1.159120e+00 1.213586e+17
1.219470e+00 1.056639e+17
1.282970e+00 9.052464e+16
1.349770e+00 7.635834e+16
1.420050e+00 6.344413e+16
1.493990e+00 5.193066e+16
1.571780e+00 4.191389e+16
1.653620e+00 3.336768e+16
1.739730e+00 2.622072e+16
1.830310e+00 2.035415e+16
1.925610e+00 1.562207e+16
2.025880e+00 1.186750e+16
2.131360e+00 8.928638e+15
2.242340e+00 6.654253e+15
2.359100e+00 4.910614e+15
2.481930e+00 3.585289e+15
2.611160e+00 2.582559e+15
2.747120e+00 1.830137e+15
2.890160e+00 1.272842e+15
3.040650e+00 8.567788e+14
3.198970e+00 5.645195e+14
3.365530e+00 3.634189e+14
3.540770e+00 2.240382e+14
3.725140e+00 1.333610e+14
3.919100e+00 8.487154e+13
4.123160e+00 5.002457e+13
4.337850e+00 2.671559e+13
4.563720e+00 1.619152e+13
4.801340e+00 8.849069e+12
5.051340e+00 4.536990e+12
5.314360e+00 2.400988e+12
5.591070e+00 1.098166e+12
5.882190e+00 5.606832e+11
6.188470e+00 2.443683e+11
6.510690e+00 1.141087e+11
6.849700e+00 4.756465e+10
7.206350e+00 1.867730e+10
7.581580e+00 7.188915e+09
7.976340e+00 2.661021e+09
8.391660e+00 9.116037e+08
8.828600e+00 3.037723e+08
9.288290e+00 9.102127e+07
9.771920e+00 2.739690e+07
1.028070e+01 7.779375e+06
1.081600e+01 1.995561e+06
1.137920e+01 4.777358e+05
1.197170e+01 1.096679e+05
1.259510e+01 2.284668e+04
1.325090e+01 4.497987e+03
1.394080e+01 8.085261e+02
1.466670e+01 1.223624e+02
1.543040e+01 1.893105e+01
1.623380e+01 2.481960e+00
1.707910e+01 3.178802e-01
1.796840e+01 6.355535e-02
1.890400e+01 1.475248e-02
1.988830e+01 3.753622e-03
2.092380e+01 1.162177e-03
2.201330e+01 0.000000e+00
2.315950e+01 0.000000e+00
2.436540e+01 0.000000e+00
2.563410e+01 0.000000e+00
2.696880e+01 0.000000e+00
2.837300e+01 0.000000e+00
2.985040e+01 0.000000e+00
3.140470e+01 0.000000e+00
3.303990e+01 0.000000e+00
3.476020e+01 0.000000e+00
3.657010e+01 0.000000e+00
3.847430e+01 0.000000e+00
4.047760e+01 0.000000e+00
4.258520e+01 0.000000e+00
4.480250e+01 0.000000e+00
4.713530e+01 0.000000e+00
4.958960e+01 0.000000e+00
5.217170e+01 0.000000e+00
5.488820e+01 0.000000e+00
5.774620e+01 0.000000e+00
6.075290e+01 0.000000e+00
6.391620e+01 0.000000e+00
6.724430e+01 0.000000e+00
7.074560e+01 0.000000e+00
7.442920e+01 0.000000e+00
7.830470e+01 0.000000e+00
8.238190e+01 0.000000e+00
8.667140e+01 0.000000e+00
9.118430e+01 0.000000e+00
9.593210e+01 0.000000e+00
1.009270e+02 0.000000e+00
1.061820e+02 0.000000e+00
1.117110e+02 0.000000e+00
1.175280e+02 0.000000e+00
1.236470e+02 0.000000e+00
1.300850e+02 0.000000e+00
1.368590e+02 0.000000e+00
1.439850e+02 0.000000e+00
1.514820e+02 0.000000e+00
1.593690e+02 0.000000e+00
1.676680e+02 0.000000e+00
1.763980e+02 0.000000e+00
1.855830e+02 0.000000e+00
1.952460e+02 0.000000e+00
2.054120e+02 0.000000e+00
2.161070e+02 0.000000e+00
2.273600e+02 0.000000e+00
2.391980e+02 0.000000e+00
2.516530e+02 0.000000e+00
2.647560e+02 0.000000e+00
2.785410e+02 0.000000e+00
