# E_gamma(MeV)   IFA_primary_masked(MeV^-1 s^-1)
5.145440e-01 5.011504e+11
5.413360e-01 3.952987e+13
5.695230e-01 4.868951e+14
5.991770e-01 2.079876e+15
6.303750e-01 5.662064e+15
6.631980e-01 1.169487e+16
6.977300e-01 1.995946e+16
7.340600e-01 2.944755e+16
7.722810e-01 3.860247e+16
8.124930e-01 4.577470e+16
8.547980e-01 4.987861e+16
8.993070e-01 5.072724e+16
9.461320e-01 4.878089e+16
9.953960e-01 4.481962e+16
1.047230e+00 3.968359e+16
1.101750e+00 3.412314e+16
1.159120e+00 2.862998e+16
1.219470e+00 2.351684e+16
1.282970e+00 1.896188e+16
1.349770e+00 1.505434e+16
1.420050e+00 1.177471e+16
1.493990e+00 9.086626e+15
1.571780e+00 6.930399e+15
1.653620e+00 5.224343e+15
1.739730e+00 3.891294e+15
1.830310e+00 2.860080e+15
1.925610e+00 2.074876e+15
2.025880e+00 1.478030e+15
2.131360e+00 1.037162e+15
2.242340e+00 7.116730e+14
2.359100e+00 4.734807e+14
2.481930e+00 3.075685e+14
2.611160e+00 1.963185e+14
2.747120e+00 1.175798e+14
2.890160e+00 6.919520e+13
3.040650e+00 4.319041e+13
3.198970e+00 2.442674e+13
3.365530e+00 1.329325e+13
3.540770e+00 7.558723e+12
3.725140e+00 3.746785e+12
3.919100e+00 2.071457e+12
4.123160e+00 9.722413e+11
4.337850e+00 4.783309e+11
4.563720e+00 2.076380e+11
4.801340e+00 9.954070e+10
5.051340e+00 4.108832e+10
5.314360e+00 1.623634e+10
5.591070e+00 6.430672e+09
5.882190e+00 2.390695e+09
6.188470e+00 8.634835e+08
6.510690e+00 2.922608e+08
6.849700e+00 9.112855e+07
7.206350e+00 2.476912e+07
7.581580e+00 6.722400e+06
7.976340e+00 1.821569e+06
8.391660e+00 4.337124e+05
8.828600e+00 1.003786e+05
9.288290e+00 2.312456e+04
9.771920e+00 4.679993e+03
1.028070e+01 9.068386e+02
1.081600e+01 1.551593e+02
1.137920e+01 2.195322e+01
1.197170e+01 3.177468e+00
1.259510e+01 3.922620e-01
1.325090e+01 6.645561e-02
1.394080e+01 1.341958e-02
1.466670e+01 4.363974e-03
1.543040e+01 1.257825e-03
1.623380e+01 3.864577e-04
1.707910e+01 0.000000e+00
1.796840e+01 0.000000e+00
1.890400e+01 0.000000e+00
1.988830e+01 0.000000e+00
2.092380e+01 0.000000e+00
2.201330e+01 0.000000e+00
2.315950e+01 0.000000e+00
2.436540e+01 0.000000e+00
2.563410e+01 0.000000e+00
2.696880e+01 0.000000e+00
2.837300e+01 0.000000e+00
2.985040e+01 0.000000e+00
3.140470e+01 0.000000e+00
3.303990e+01 0.000000e+00
3.476020e+01 0.000000e+00
3.657010e+01 0.000000e+00
3.847430e+01 0.000000e+00
4.047760e+01 0.000000e+00
4.258520e+01 0.000000e+00
4.480250e+01 0.000000e+00
4.713530e+01 0.000000e+00
4.958960e+01 0.000000e+00
5.217170e+01 0.000000e+00
5.488820e+01 0.000000e+00
5.774620e+01 0.000000e+00
6.075290e+01 0.000000e+00
6.391620e+01 0.000000e+00
6.724430e+01 0.000000e+00
7.074560e+01 0.000000e+00
7.442920e+01 0.000000e+00
7.830470e+01 0.000000e+00
8.238190e+01 0.000000e+00
8.667140e+01 0.000000e+00
9.118430e+01 0.000000e+00
9.593210e+01 0.000000e+00
1.009270e+02 0.000000e+00
1.061820e+02 0.000000e+00
1.117110e+02 0.000000e+00
1.175280e+02 0.000000e+00
1.236470e+02 0.000000e+00
1.300850e+02 0.000000e+00
1.368590e+02 0.000000e+00
1.439850e+02 0.000000e+00
1.514820e+02 0.000000e+00
1.593690e+02 0.000000e+00
1.676680e+02 0.000000e+00
1.763980e+02 0.000000e+00
1.855830e+02 0.000000e+00
1.952460e+02 0.000000e+00
2.054120e+02 0.000000e+00
