      E_gamma(MeV)          Gamma Rays            Positrons
    5.1454400000e-01     4.9929799998e+19     4.8232396923e+20
    5.4133600000e-01     5.4309099998e+19     4.7458296606e+20
    5.6952300000e-01     5.8761599997e+19     4.6878696257e+20
    5.9917700000e-01     6.4379899997e+19     4.7009095871e+20
    6.3037500000e-01     7.0433699996e+19     4.7280895446e+20
    6.6319800000e-01     7.4943599996e+19     4.7658994977e+20
    6.9773000000e-01     8.1845199995e+19     4.8188794459e+20
    7.3406000000e-01     8.7892899994e+19     4.9102793889e+20
    7.7228100000e-01     9.3768999994e+19     5.0068193259e+20
    8.1249300000e-01     1.0162799999e+20     5.0953492565e+20
    8.5479800000e-01     1.0908399999e+20     5.2078191799e+20
    8.9930700000e-01     1.1655699999e+20     5.3482190954e+20
    9.4613200000e-01     1.2376399999e+20     5.4649590023e+20
    9.9539600000e-01     1.3174799999e+20     5.5808888995e+20
    1.0472300000e+00     1.4153399998e+20     5.7060487861e+20
    1.1017500000e+00     1.4901599998e+20     5.8461686611e+20
    1.1591200000e+00     1.5753399998e+20     5.9739385232e+20
    1.2194700000e+00     1.6727699998e+20     6.0963183711e+20
    1.2829700000e+00     1.7739799997e+20     6.1989882033e+20
    1.3497700000e+00     1.8589799997e+20     6.3335580183e+20
    1.4200500000e+00     1.9643799996e+20     6.4625978141e+20
    1.4939900000e+00     2.0541599996e+20     6.5583175890e+20
    1.5717800000e+00     2.1593699995e+20     6.6510573407e+20
    1.6536200000e+00     2.2654399994e+20     6.7412870667e+20
    1.7397300000e+00     2.3665699993e+20     6.8533867646e+20
    1.8303100000e+00     2.4732999992e+20     6.9412264314e+20
    1.9256100000e+00     2.5732399991e+20     6.9937260638e+20
    2.0258800000e+00     2.6713099989e+20     7.0576456584e+20
    2.1313600000e+00     2.7758499987e+20     7.1319852112e+20
    2.2423400000e+00     2.8808199985e+20     7.1764847179e+20
    2.3591000000e+00     2.9860299983e+20     7.2122241739e+20
    2.4819300000e+00     3.0782099980e+20     7.2557235738e+20
    2.6111600000e+00     3.1627399977e+20     7.2872429118e+20
    2.7471200000e+00     3.2661299974e+20     7.2820721818e+20
    2.8901600000e+00     3.3573699970e+20     7.2890113765e+20
    3.0406500000e+00     3.4391299965e+20     7.2999504882e+20
    3.1989700000e+00     3.5267299959e+20     7.2813995085e+20
    3.3655300000e+00     3.6104699952e+20     7.2664484279e+20
    3.5407700000e+00     3.6752899945e+20     7.2303672359e+20
    3.7251400000e+00     3.7497499936e+20     7.1953059212e+20
    3.9191000000e+00     3.8182199926e+20     7.1431144711e+20
    4.1231600000e+00     3.8887099914e+20     7.0928928716e+20
    4.3378500000e+00     3.9361799900e+20     7.0125711073e+20
    4.5637200000e+00     3.9849999884e+20     6.9501191614e+20
    4.8013400000e+00     4.0431099865e+20     6.8706170150e+20
    5.0513400000e+00     4.0807999844e+20     6.7860146475e+20
    5.3143600000e+00     4.1126199819e+20     6.6726920362e+20
    5.5910700000e+00     4.1449999790e+20     6.5717391558e+20
    5.8821900000e+00     4.1658899756e+20     6.4736159789e+20
    6.1884700000e+00     4.1815199717e+20     6.3442224746e+20
    6.5106900000e+00     4.1905099672e+20     6.2197786095e+20
    6.8497000000e+00     4.1991899619e+20     6.0990643462e+20
    7.2063500000e+00     4.1986099558e+20     5.9580996438e+20
    7.5815800000e+00     4.1850399488e+20     5.8261844571e+20
    7.9763400000e+00     4.1602399405e+20     5.6771787361e+20
    8.3916600000e+00     4.1427999310e+20     5.5261924259e+20
    8.8286000000e+00     4.1095999200e+20     5.3844554657e+20
    9.2882900000e+00     4.0855199072e+20     5.2231477885e+20
    9.7719200000e+00     4.0397398923e+20     5.0670893207e+20
    1.0280700000e+01     3.9823698751e+20     4.9043699810e+20
    1.0816000000e+01     3.9318698551e+20     4.7503096780e+20
    1.1379200000e+01     3.8687798319e+20     4.5766983150e+20
    1.1971700000e+01     3.8109398050e+20     4.4174357820e+20
    1.2595100000e+01     3.7434997737e+20     4.2456119570e+20
    1.3250900000e+01     3.6624397375e+20     4.0832467080e+20
    1.3940800000e+01     3.5813296955e+20     3.9152198890e+20
    1.4666700000e+01     3.5005996467e+20     3.7585113370e+20
    1.5430400000e+01     3.4088695902e+20     3.5844408750e+20
    1.6233800000e+01     3.3274795246e+20     3.4216883050e+20
    1.7079100000e+01     3.2325094733e+20     3.2646760190e+20
    1.7968400000e+01     3.1286293703e+20     3.1066582590e+20
    1.8904000000e+01     3.0373092508e+20     2.9470376850e+20
    1.9888300000e+01     2.9316491143e+20     2.7961338860e+20
    2.0923800000e+01     2.8377289629e+20     2.6441865680e+20
    2.2013300000e+01     2.7296987982e+20     2.4997054900e+20
    2.3159500000e+01     2.6271686197e+20     2.3572299740e+20
    2.4365400000e+01     2.5220284242e+20     2.2188098600e+20
    2.5634100000e+01     2.4220782040e+20     2.0826646140e+20
    2.6968800000e+01     2.3158979438e+20     1.9540935320e+20
    2.8373000000e+01     2.2122176304e+20     1.8277663500e+20
    2.9850400000e+01     2.1084372415e+20     1.7069021770e+20
    3.1404700000e+01     2.0113167621e+20     1.5912304160e+20
    3.3039900000e+01     1.9076661890e+20     1.4774005500e+20
    3.4760200000e+01     1.8097055204e+20     1.3718111700e+20
    3.6570100000e+01     1.7137347813e+20     1.2696919200e+20
    3.8474300000e+01     1.6196039794e+20     1.1741416800e+20
    4.0477600000e+01     1.5265830894e+20     1.0820389800e+20
    4.2585200000e+01     1.4348020558e+20     9.9479626000e+19
    4.4802500000e+01     1.3471807869e+20     9.1226271000e+19
    4.7135300000e+01     1.2651292288e+20     8.3610210000e+19
    4.9589600000e+01     1.1812974057e+20     7.6385437000e+19
    5.2171700000e+01     1.0999153747e+20     6.9646967000e+19
    5.4888200000e+01     1.0251131593e+20     6.3275422000e+19
    5.7746200000e+01     9.5233061750e+19     5.7452291000e+19
    6.0752900000e+01     8.8306048510e+19     5.1936976000e+19
    6.3916200000e+01     8.1470675210e+19     4.6846371000e+19
    6.7244300000e+01     7.5171655980e+19     4.2282115000e+19
    7.0745600000e+01     6.9178594360e+19     3.7903557000e+19
    7.4429200000e+01     6.3507353640e+19     3.3937004000e+19
    7.8304700000e+01     5.8087390870e+19     3.0352021000e+19
    8.2381900000e+01     5.3025847110e+19     2.6993958000e+19
    8.6671400000e+01     4.8376824290e+19     2.3968109000e+19
    9.1184300000e+01     4.3850330190e+19     2.1248223000e+19
    9.5932100000e+01     3.9720375540e+19     1.8804211000e+19
    1.0092700000e+02     3.5886398470e+19     1.6481411000e+19
    1.0618200000e+02     3.2338682100e+19     1.4450290000e+19
    1.1171100000e+02     2.9052530600e+19     1.2694002000e+19
    1.1752800000e+02     2.5994963700e+19     1.1069680000e+19
    1.2364700000e+02     2.3261332500e+19     9.5842200000e+18
    1.3008500000e+02     2.0683122500e+19     8.2980600000e+18
    1.3685900000e+02     1.8353053200e+19     7.1594400000e+18
    1.4398500000e+02     1.6228574900e+19     6.1605000000e+18
    1.5148200000e+02     1.4342947900e+19     5.2648800000e+18
    1.5936900000e+02     1.2625853000e+19     4.4965700000e+18
    1.6766800000e+02     1.1034857800e+19     3.8067100000e+18
    1.7639800000e+02     9.6407529000e+18     3.2234300000e+18
    1.8558300000e+02     8.3763633000e+18     2.7139500000e+18
    1.9524600000e+02     7.2837008000e+18     2.2546200000e+18
    2.0541200000e+02     6.2803550000e+18     1.8917100000e+18
    2.1610700000e+02     5.4209359000e+18     1.5738700000e+18
    2.2736000000e+02     4.6198432000e+18     1.2978200000e+18
    2.3919800000e+02     3.9455860000e+18     1.0546900000e+18
    2.5165300000e+02     3.3480630000e+18     8.6724000000e+17
    2.6475600000e+02     2.8358560000e+18     7.0113000000e+17
    2.7854100000e+02     2.3860160000e+18     5.6451000000e+17
    2.9304500000e+02     1.9945520000e+18     4.5110000000e+17
    3.0830300000e+02     1.6520150000e+18     3.6467000000e+17
    3.2435600000e+02     1.3719070000e+18     2.8481000000e+17
    3.4124500000e+02     1.1232260000e+18     2.2336000000e+17
    3.5901300000e+02     9.2115100000e+17     1.7318000000e+17
    3.7770600000e+02     7.4047200000e+17     1.3443000000e+17
    3.9737300000e+02     5.9955400000e+17     1.0372000000e+17
    4.1806400000e+02     4.7673900000e+17     7.8000000000e+16
    4.3983200000e+02     3.7992600000e+17     5.9830000000e+16
    4.6273300000e+02     2.9641000000e+17     4.3980000000e+16
    4.8682700000e+02     2.2999600000e+17     3.2650000000e+16
    5.1217600000e+02     1.7768100000e+17     2.3950000000e+16
    5.3884400000e+02     1.3409400000e+17     1.7600000000e+16
    5.6690100000e+02     1.0276600000e+17     1.2600000000e+16
    5.9641800000e+02     7.6470000000e+16     9.0500000000e+15
    6.2747300000e+02     5.7220000000e+16     6.4600000000e+15
    6.6014500000e+02     4.0720000000e+16     4.3600000000e+15
    6.9451800000e+02     2.9660000000e+16     2.9500000000e+15
    7.3068000000e+02     2.1110000000e+16     1.9800000000e+15
    7.6872600000e+02     1.5020000000e+16     1.3200000000e+15
    8.0875200000e+02     1.0350000000e+16     9.2000000000e+14
    8.5086300000e+02     6.9800000000e+15     5.5000000000e+14
    8.9516600000e+02     4.8100000000e+15     3.5000000000e+14
    9.4177700000e+02     3.1150000000e+15     2.1000000000e+14
    9.9081400000e+02     2.0270000000e+15     1.1000000000e+14
    1.0424000000e+03     1.2520000000e+15     9.8000000000e+13
    1.0966800000e+03     7.8700000000e+14     4.3000000000e+13
    1.1537800000e+03     4.7500000000e+14     3.4000000000e+13
    1.2138600000e+03     2.7900000000e+14     1.3000000000e+13
    1.2770600000e+03     1.6400000000e+14     1.3000000000e+13
    1.3435600000e+03     9.2700000000e+13     2.0000000000e+12
    1.4135200000e+03     5.5900000000e+13     1.0177302692e+12
    1.4871200000e+03     2.9900000000e+13     5.0000000000e+11
    1.5645500000e+03     1.6600000000e+13     5.4645760228e+11
    1.6460100000e+03     8.9000000000e+12     6.0000000000e+11
    1.7317200000e+03     4.7500000000e+12     2.6249038680e+11
    1.8218900000e+03     2.3400000000e+12     1.1000000000e+11
    1.9167500000e+03     1.1400000000e+12     1.0000000000e+10
    2.0165500000e+03     5.5000000000e+11     3.0000000000e+10
    2.1215500000e+03     2.2200000000e+11     1.0000000000e+10
    2.2320200000e+03     9.3000000000e+10     8.0000000000e+09
    2.3482300000e+03     4.7000000000e+10     1.2000000000e+10
    2.4705000000e+03     1.6900000000e+10     4.0000000000e+09
    2.5991400000e+03     5.9000000000e+09     1.0000000000e+08
    2.7344700000e+03     2.4700000000e+09     8.0000000000e+08
    2.8768500000e+03     7.7000000000e+08     3.7000000000e+08
    3.0266500000e+03     2.4000000000e+08     2.0000000000e+07
    3.1842400000e+03     7.3000000000e+07     1.7000000000e+07
    3.3500400000e+03     1.7000000000e+07     3.0000000000e+06
    3.5244700000e+03     4.0000000000e+06     3.3000000000e+06
    3.7079900000e+03     6.0000000000e+05     2.0000000000e+05
    3.9010600000e+03     2.1000000000e+05     5.0000000000e+04
    4.1041800000e+03     2.3000000000e+04     1.0000000000e+04
    4.3178800000e+03     4.0000000000e+03     3.0930863667e+03
    4.5427100000e+03     9.0000000000e+02     9.0000000000e+02
    4.7792400000e+03     5.2000000000e+02     1.4080475364e+02
    5.0280900000e+03     1.0800000000e+02     2.0000000000e+01
    5.2898900000e+03     2.5000000000e+01     1.8000000000e+01
    5.5653300000e+03     1.8000000000e+00     8.0000000000e-01
    5.8551100000e+03     1.2000000000e-01     2.0000000000e-02
    6.1599800000e+03     2.5000000000e-02     4.0000000000e-03
    6.4807200000e+03     2.2000000000e-03     9.9999999999e-05
    6.8181600000e+03     2.5000000000e-04     3.2000000000e-04
    7.1731700000e+03     4.6000000000e-05     7.4000000000e-05
    7.5466700000e+03     2.4000000000e-06     2.7000000000e-06
    7.9396200000e+03     2.4000000000e-08     2.0196264233e-07
    8.3530200000e+03     7.4000000000e-09     1.3200000000e-08
    8.7879500000e+03     4.9000000000e-10     6.8000000000e-10
    9.2455300000e+03     1.0400000000e-11     9.0000000000e-12
    9.7269300000e+03     7.2000000000e-13     1.0800000000e-12
    1.0233400000e+04     9.6000000000e-15     1.7000000000e-14
    1.0766200000e+04     4.6300000000e-15     9.0100000000e-15
    1.1326800000e+04     7.0600000000e-17     1.3420000000e-16
    1.1916600000e+04     2.0000000000e-21     2.0000000000e-21
    1.2537100000e+04     2.0000000000e-23     2.9000000000e-22
    1.3189900000e+04     4.0000000000e-25     4.1000000000e-24
    1.3876600000e+04     3.3390000000e-24     6.3590000000e-24
    1.4599200000e+04     3.0000000000e-29     8.0000000000e-29
    1.5359300000e+04     1.3384000000e-28     2.5760000000e-28
    1.6159100000e+04     3.4000000000e-33     9.0000000000e-34
    1.7000500000e+04     5.9000000000e-36     6.0000000000e-36
    1.7885700000e+04     2.0000000000e-39     1.0000000000e-38
    1.8816900000e+04     6.3890000000e-39     1.2230000000e-38
    1.9796700000e+04     3.6000000000e-42     6.7110000000e-42
    2.0827500000e+04     1.0350000000e-45     1.9420000000e-45
    2.1912000000e+04     1.6000000000e-51     2.8000000000e-51
    2.3052900000e+04     2.4000000000e-54     1.0000000000e-55
    2.4253200000e+04     3.3997000000e-55     6.2175000000e-55
    2.5516100000e+04     1.0000000000e-62     2.0000000000e-62
    2.6844600000e+04     1.2737000000e-62     2.3752300000e-62
    2.8242400000e+04     2.7479000000e-67     4.9124000000e-67
    2.9713000000e+04     7.8000000000e-75     2.1000000000e-75
    3.1260100000e+04     1.3000000000e-80     2.0000000000e-80
    3.2887700000e+04     1.6463220000e-80     3.0050400000e-80
    3.4600200000e+04     6.7000000000e-90     1.0000000000e-90
    3.6401700000e+04     8.3105020000e-91     1.4302750000e-90
    3.8297100000e+04     1.7811620000e-96     3.0169080000e-96
    4.0291200000e+04    1.2282032000e-102    2.0567710000e-102
    4.2389100000e+04    1.1905893000e-108    1.9783038000e-108
    4.4596300000e+04    2.0000000000e-122    7.0000000000e-122
    4.6918300000e+04    7.4382979000e-122    1.2795479500e-121
    4.9361300000e+04    2.3552444200e-129    4.1158258000e-129
    5.1931500000e+04    1.6000000000e-144    4.3461106308e-137
    5.4635500000e+04    1.1149483200e-145    1.7640454800e-145
    5.7480300000e+04    2.1909474800e-154    3.7210846600e-154
    6.0473200000e+04    5.2808624400e-162    7.9430334490e-162
    6.3622000000e+04    7.7600000000e-179    7.2270000000e-177
    6.6934700000e+04    1.5300000000e-189    1.0789600000e-186
    7.0419900000e+04    4.3000000000e-200    4.2501000000e-197
    7.4086600000e+04    3.1900000000e-211    1.8605000000e-209
    7.7944200000e+04    5.5000000000e-224    2.6718000000e-221
    8.2002600000e+04    6.0438088359e-226    8.9175784115e-226
    8.6272400000e+04    2.6100000000e-249    4.3283100000e-246
    9.0764500000e+04    1.3470000000e-262    6.7690000000e-261
    9.5490400000e+04    8.1226699976e-265    1.2047299997e-264
    1.0046300000e+05    5.5400000000e-293    4.6671000000e-290
    1.0569300000e+05    7.9991900000e-294    1.1618300000e-293
    1.1119700000e+05     0.0000000000e+00     0.0000000000e+00
    1.1698700000e+05     0.0000000000e+00     0.0000000000e+00
    1.2307800000e+05     0.0000000000e+00     0.0000000000e+00
    1.2948600000e+05     0.0000000000e+00     0.0000000000e+00
    1.3622900000e+05     0.0000000000e+00     0.0000000000e+00
    1.4332200000e+05     0.0000000000e+00     0.0000000000e+00
    1.5078500000e+05     0.0000000000e+00     0.0000000000e+00
    1.5863600000e+05     0.0000000000e+00     0.0000000000e+00
    1.6689600000e+05     0.0000000000e+00     0.0000000000e+00
    1.7558600000e+05     0.0000000000e+00     0.0000000000e+00
    1.8472800000e+05     0.0000000000e+00     0.0000000000e+00
    1.9434700000e+05     0.0000000000e+00     0.0000000000e+00
    2.0446600000e+05     0.0000000000e+00     0.0000000000e+00
    2.1511200000e+05     0.0000000000e+00     0.0000000000e+00
    2.2631300000e+05     0.0000000000e+00     0.0000000000e+00
    2.3809700000e+05     0.0000000000e+00     0.0000000000e+00
    2.5049400000e+05     0.0000000000e+00     0.0000000000e+00
    2.6353700000e+05     0.0000000000e+00     0.0000000000e+00
    2.7725900000e+05     0.0000000000e+00     0.0000000000e+00
    2.9169600000e+05     0.0000000000e+00     0.0000000000e+00
    3.0688400000e+05     0.0000000000e+00     0.0000000000e+00
    3.2286300000e+05     0.0000000000e+00     0.0000000000e+00
    3.3967400000e+05     0.0000000000e+00     0.0000000000e+00
    3.5736000000e+05     0.0000000000e+00     0.0000000000e+00
    3.7596700000e+05     0.0000000000e+00     0.0000000000e+00
    3.9554400000e+05     0.0000000000e+00     0.0000000000e+00
    4.1613900000e+05     0.0000000000e+00     0.0000000000e+00
    4.3780700000e+05     0.0000000000e+00     0.0000000000e+00
    4.6060300000e+05     0.0000000000e+00     0.0000000000e+00
    4.8458600000e+05     0.0000000000e+00     0.0000000000e+00
    5.0981800000e+05     0.0000000000e+00     0.0000000000e+00
    5.3636300000e+05     0.0000000000e+00     0.0000000000e+00
    5.6429100000e+05     0.0000000000e+00     0.0000000000e+00
    5.9367300000e+05     0.0000000000e+00     0.0000000000e+00
    6.2458400000e+05     0.0000000000e+00     0.0000000000e+00
    6.5710600000e+05     0.0000000000e+00     0.0000000000e+00
    6.9132000000e+05     0.0000000000e+00     0.0000000000e+00
    7.2731700000e+05     0.0000000000e+00     0.0000000000e+00
    7.6518700000e+05     0.0000000000e+00     0.0000000000e+00
    8.0502900000e+05     0.0000000000e+00     0.0000000000e+00
    8.4694600000e+05     0.0000000000e+00     0.0000000000e+00
    8.9104500000e+05     0.0000000000e+00     0.0000000000e+00
    9.3744100000e+05     0.0000000000e+00     0.0000000000e+00
    9.8625200000e+05     0.0000000000e+00     0.0000000000e+00
    1.0376100000e+06     0.0000000000e+00     0.0000000000e+00
    1.0916300000e+06     0.0000000000e+00     0.0000000000e+00
    1.1484700000e+06     0.0000000000e+00     0.0000000000e+00
    1.2082700000e+06     0.0000000000e+00     0.0000000000e+00
    1.2711800000e+06     0.0000000000e+00     0.0000000000e+00
    1.3373700000e+06     0.0000000000e+00     0.0000000000e+00
    1.4070100000e+06     0.0000000000e+00     0.0000000000e+00
    1.4802700000e+06     0.0000000000e+00     0.0000000000e+00
    1.5573400000e+06     0.0000000000e+00     0.0000000000e+00
    1.6384300000e+06     0.0000000000e+00     0.0000000000e+00
    1.7237400000e+06     0.0000000000e+00     0.0000000000e+00
    1.8135000000e+06     0.0000000000e+00     0.0000000000e+00
    1.9079200000e+06     0.0000000000e+00     0.0000000000e+00
    2.0072700000e+06     0.0000000000e+00     0.0000000000e+00
    2.1117800000e+06     0.0000000000e+00     0.0000000000e+00
    2.2217400000e+06     0.0000000000e+00     0.0000000000e+00
    2.3374200000e+06     0.0000000000e+00     0.0000000000e+00
    2.4591300000e+06     0.0000000000e+00     0.0000000000e+00
    2.5871700000e+06     0.0000000000e+00     0.0000000000e+00
    2.7218800000e+06     0.0000000000e+00     0.0000000000e+00
    2.8636100000e+06     0.0000000000e+00     0.0000000000e+00
    3.0127100000e+06     0.0000000000e+00     0.0000000000e+00
    3.1695800000e+06     0.0000000000e+00     0.0000000000e+00
    3.3346200000e+06     0.0000000000e+00     0.0000000000e+00
    3.5082500000e+06     0.0000000000e+00     0.0000000000e+00
